Elapsed Time,Heart Rate PulseOx1,PPG PulseOx1,SpO2 PulseOx1,BioRadio Event
00:27.4,83,78.02120972,96,0
00:27.4,83,78.02120972,96,0
00:27.4,83,78.02120972,96,0
00:27.5,83,78.04806519,96,0
00:27.5,83,78.04806519,96,0
00:27.5,83,78.04806519,96,0
00:27.5,83,78.06759644,96,0
00:27.5,83,78.06759644,96,0
00:27.5,83,78.06759644,96,0
00:27.5,83,78.06759644,96,0
00:27.5,83,78.07736206,96,0
00:27.5,83,78.07736206,96,0
00:27.5,83,78.07736206,96,0
00:27.5,83,78.08224487,96,0
00:27.5,83,78.08224487,96,0
00:27.5,83,78.08224487,96,0
00:27.5,83,78.08224487,96,0
00:27.5,83,78.07492065,96,0
00:27.5,83,78.07492065,96,0
00:27.5,83,78.07492065,96,0
00:27.5,83,78.06515503,96,0
00:27.5,83,78.06515503,96,0
00:27.5,83,78.06515503,96,0
00:27.5,83,78.07736206,96,0
00:27.5,83,78.07736206,96,0
00:27.5,83,78.07736206,96,0
00:27.5,83,78.15792847,96,0
00:27.5,83,78.15792847,96,0
00:27.6,83,78.15792847,96,0
00:27.6,83,78.15792847,96,0
00:27.6,83,78.38498688,96,0
00:27.6,83,78.38498688,96,0
00:27.6,83,78.38498688,96,0
00:27.6,83,78.87327576,96,0
00:27.6,83,78.87327576,96,0
00:27.6,83,78.87327576,96,0
00:27.6,83,78.87327576,96,0
00:27.6,83,79.6984787,96,0
00:27.6,83,79.6984787,96,0
00:27.6,83,79.6984787,96,0
00:27.6,83,80.88014221,96,0
00:27.6,83,80.88014221,96,0
00:27.6,83,80.88014221,96,0
00:27.6,83,82.34012604,96,0
00:27.6,83,82.34012604,96,0
00:27.6,83,82.34012604,96,0
00:27.6,83,83.90997314,96,0
00:27.6,83,83.90997314,96,0
00:27.6,83,83.90997314,96,0
00:27.6,83,83.90997314,96,0
00:27.6,83,85.36995697,96,0
00:27.6,83,85.36995697,96,0
00:27.6,83,85.36995697,96,0
00:27.7,83,86.51987457,96,0
00:27.7,83,86.51987457,96,0
00:27.7,83,86.51987457,96,0
00:27.7,83,86.51987457,96,0
00:27.7,83,87.22789001,96,0
00:27.7,83,87.22789001,96,0
00:27.7,83,87.22789001,96,0
00:27.7,83,87.45006561,96,0
00:27.7,83,87.45006561,96,0
00:27.7,83,87.45006561,96,0
00:27.7,83,87.23521423,96,0
00:27.7,83,87.23521423,96,0
00:27.7,83,87.23521423,96,0
00:27.7,83,86.67124176,96,0
00:27.7,83,86.67124176,96,0
00:27.7,83,86.67124176,96,0
00:27.7,83,86.67124176,96,0
00:27.7,83,85.86312866,96,0
00:27.7,83,85.86312866,96,0
00:27.7,83,85.86312866,96,0
00:27.7,83,84.90608215,96,0
00:27.7,83,84.90608215,96,0
00:27.7,83,84.90608215,96,0
00:27.7,83,84.90608215,96,0
00:27.7,83,83.88555908,96,0
00:27.8,83,83.88555908,96,0
00:27.8,83,83.88555908,96,0
00:27.8,83,82.86503601,96,0
00:27.8,83,82.86503601,96,0
00:27.8,83,82.86503601,96,0
00:27.8,83,81.89822388,96,0
00:27.8,83,81.89822388,96,0
00:27.8,83,81.89822388,96,0
00:27.8,83,81.02418518,96,0
00:27.8,83,81.02418518,96,0
00:27.8,83,81.02418518,96,0
00:27.8,83,81.02418518,96,0
00:27.8,84,80.29175568,96,0
00:27.8,84,80.29175568,96,0
00:27.8,84,80.29175568,96,0
00:27.8,84,79.73265839,96,0
00:27.8,84,79.73265839,96,0
00:27.8,84,79.73265839,96,0
00:27.8,84,79.38353729,96,0
00:27.8,84,79.38353729,96,0
00:27.8,84,79.38353729,96,0
00:27.8,84,79.38353729,96,0
00:27.8,84,79.25170135,96,0
00:27.8,84,79.25170135,96,0
00:27.8,84,79.25170135,96,0
00:27.9,84,79.32494354,96,0
00:27.9,84,79.32494354,96,0
00:27.9,84,79.32494354,96,0
00:27.9,84,79.56908417,96,0
00:27.9,84,79.56908417,96,0
00:27.9,84,79.56908417,96,0
00:27.9,84,79.56908417,96,0
00:27.9,84,79.9230957,96,0
00:27.9,84,79.9230957,96,0
00:27.9,84,79.9230957,96,0
00:27.9,84,80.31372833,96,0
00:27.9,84,80.31372833,96,0
00:27.9,84,80.31372833,96,0
00:27.9,84,80.67017365,96,0
00:27.9,84,80.67017365,96,0
00:27.9,84,80.67017365,96,0
00:27.9,84,80.67017365,96,0
00:27.9,84,80.93873596,96,0
00:27.9,84,80.93873596,96,0
00:27.9,84,80.93873596,96,0
00:27.9,84,81.07789612,96,0
00:27.9,84,81.07789612,96,0
00:27.9,84,81.07789612,96,0
00:27.9,84,81.07545471,96,0
00:27.9,84,81.07545471,96,0
00:28.0,84,81.07545471,96,0
00:28.0,84,81.07545471,96,0
00:28.0,84,80.94117737,96,0
00:28.0,84,80.94117737,96,0
00:28.0,84,80.94117737,96,0
00:28.0,84,80.69947052,96,0
00:28.0,84,80.69947052,96,0
00:28.0,84,80.69947052,96,0
00:28.0,84,80.38452911,96,0
00:28.0,84,80.38452911,96,0
00:28.0,84,80.38452911,96,0
00:28.0,84,80.38452911,96,0
00:00:28,84,80.02807617,96,0
00:28.0,84,80.02807617,96,0
00:28.0,84,80.02807617,96,0
00:28.0,84,79.65697479,96,0
00:28.0,84,79.65697479,96,0
00:28.0,84,79.65697479,96,0
00:28.0,84,79.65697479,96,0
00:28.0,84,79.28832245,96,0
00:28.0,84,79.28832245,96,0
00:28.0,84,79.28832245,96,0
00:28.0,84,78.94651794,96,0
00:28.0,84,78.94651794,96,0
00:28.0,84,78.94651794,96,0
00:28.1,84,78.63889313,96,0
00:28.1,84,78.63889313,96,0
00:28.1,84,78.63889313,96,0
00:28.1,84,78.63889313,96,0
00:28.1,84,78.37277985,96,0
00:28.1,84,78.37277985,96,0
00:28.1,84,78.37277985,96,0
00:28.1,84,78.16036987,96,0
00:28.1,84,78.16036987,96,0
00:28.1,84,78.16036987,96,0
00:28.1,84,77.99923706,96,0
00:28.1,84,77.99923706,96,0
00:28.1,84,77.99923706,96,0
00:28.1,84,77.99923706,96,0
00:28.1,84,77.87472534,96,0
00:28.1,84,77.87472534,96,0
00:28.1,84,77.87472534,96,0
00:28.1,84,77.78683472,96,0
00:28.1,84,77.78683472,96,0
00:28.1,84,77.78683472,96,0
00:28.1,84,77.72823334,96,0
00:28.1,84,77.72823334,96,0
00:28.1,84,77.72823334,96,0
00:28.1,84,77.68428802,96,0
00:28.1,84,77.68428802,96,0
00:28.2,84,77.68428802,96,0
00:28.2,84,77.68428802,96,0
00:28.2,84,77.65743256,96,0
00:28.2,84,77.65743256,96,0
00:28.2,84,77.65743256,96,0
00:28.2,84,77.65499115,96,0
00:28.2,84,77.65499115,96,0
00:28.2,84,77.65499115,96,0
00:28.2,84,77.66963959,96,0
00:28.2,84,77.66963959,96,0
00:28.2,84,77.66963959,96,0
00:28.2,84,77.66963959,96,0
00:28.2,84,77.70137787,96,0
00:28.2,84,77.70137787,96,0
00:28.2,84,77.70137787,96,0
00:28.2,84,77.75021362,96,0
00:28.2,84,77.75021362,96,0
00:28.2,84,77.75021362,96,0
00:28.2,84,77.80636597,96,0
00:28.2,84,77.80636597,96,0
00:28.2,84,77.80636597,96,0
00:28.2,84,77.80636597,96,0
00:28.2,84,77.87228394,96,0
00:28.2,84,77.87228394,96,0
00:28.2,84,77.87228394,96,0
00:28.3,84,77.9357605,96,0
00:28.3,84,77.9357605,96,0
00:28.3,84,77.9357605,96,0
00:28.3,84,77.98947144,96,0
00:28.3,84,77.98947144,96,0
00:28.3,84,77.98947144,96,0
00:28.3,84,77.98947144,96,0
00:28.3,84,78.02853394,96,0
00:28.3,84,78.02853394,96,0
00:28.3,84,78.02853394,96,0
00:28.3,84,78.04562378,96,0
00:28.3,84,78.04562378,96,0
00:28.3,84,78.04562378,96,0
00:28.3,84,78.03341675,96,0
00:28.3,84,78.03341675,96,0
00:28.3,84,78.03341675,96,0
00:28.3,84,78.03341675,96,0
00:28.3,84,77.99191284,96,0
00:28.3,84,77.99191284,96,0
00:28.3,84,77.99191284,96,0
00:28.3,84,77.92599487,96,0
00:28.3,84,77.92599487,96,0
00:28.3,84,77.92599487,96,0
00:28.3,84,77.83810425,96,0
00:28.3,84,77.83810425,96,0
00:28.4,84,77.83810425,96,0
00:28.4,84,77.83810425,96,0
00:28.4,84,77.73067474,96,0
00:28.4,84,77.73067474,96,0
00:28.4,84,77.73067474,96,0
00:28.4,84,77.62081146,96,0
00:28.4,84,77.62081146,96,0
00:28.4,84,77.62081146,96,0
00:28.4,84,77.62081146,96,0
00:28.4,84,77.53047943,96,0
00:28.4,84,77.53047943,96,0
00:28.4,84,77.53047943,96,0
00:28.4,84,77.49385834,96,0
00:28.4,84,77.49385834,96,0
00:28.4,84,77.49385834,96,0
00:28.4,84,77.57686615,96,0
00:28.4,84,77.57686615,96,0
00:28.4,84,77.57686615,96,0
00:28.4,84,77.87716675,96,0
00:28.4,84,77.87716675,96,0
00:28.4,84,77.87716675,96,0
00:28.4,84,77.87716675,96,0
00:28.4,84,78.50705719,96,0
00:28.4,84,78.50705719,96,0
00:28.4,84,78.50705719,96,0
00:28.5,84,79.53246307,96,0
00:28.5,84,79.53246307,96,0
00:28.5,84,79.53246307,96,0
00:28.5,84,80.93385315,96,0
00:28.5,84,80.93385315,96,0
00:28.5,84,80.93385315,96,0
00:28.5,84,80.93385315,96,0
00:28.5,84,82.59403229,96,0
00:28.5,84,82.59403229,96,0
00:28.5,84,82.59403229,96,0
00:28.5,84,84.30060577,96,0
00:28.5,84,84.30060577,96,0
00:28.5,84,84.30060577,96,0
00:28.5,84,85.80941772,96,0
00:28.5,84,85.80941772,96,0
00:28.5,84,85.80941772,96,0
00:28.5,84,85.80941772,96,0
00:28.5,84,86.9080658,96,0
00:28.5,84,86.9080658,96,0
00:28.5,84,86.9080658,96,0
00:28.5,84,87.49645233,96,0
00:28.5,84,87.49645233,96,0
00:28.5,84,87.49645233,96,0
00:28.5,84,87.56481171,96,0
00:28.5,84,87.56481171,96,0
00:28.6,84,87.56481171,96,0
00:28.6,84,87.56481171,96,0
00:28.6,84,87.19371033,96,0
00:28.6,84,87.19371033,96,0
00:28.6,84,87.19371033,96,0
00:28.6,84,86.50034332,96,0
00:28.6,84,86.50034332,96,0
00:28.6,84,86.50034332,96,0
00:28.6,84,85.60921478,96,0
00:28.6,84,85.60921478,96,0
00:28.6,84,85.60921478,96,0
00:28.6,84,85.60921478,96,0
00:28.6,84,84.62042999,96,0
00:28.6,84,84.62042999,96,0
00:28.6,84,84.62042999,96,0
00:28.6,84,83.61455536,96,0
00:28.6,84,83.61455536,96,0
00:28.6,84,83.61455536,96,0
00:28.6,84,82.6379776,96,0
00:28.6,84,82.6379776,96,0
00:28.6,84,82.6379776,96,0
00:28.6,84,82.6379776,96,0
00:28.6,84,81.72731781,96,0
00:28.6,84,81.72731781,96,0
00:28.6,84,81.72731781,96,0
00:28.7,84,80.9143219,96,0
00:28.7,84,80.9143219,96,0
00:28.7,84,80.9143219,96,0
00:28.7,84,80.9143219,96,0
00:28.7,84,80.2355957,96,0
00:28.7,84,80.2355957,96,0
00:28.7,84,80.2355957,96,0
00:28.7,84,79.73021698,96,0
00:28.7,84,79.73021698,96,0
00:28.7,84,79.73021698,96,0
00:28.7,84,79.4250412,96,0
00:28.7,84,79.4250412,96,0
00:28.7,84,79.4250412,96,0
00:28.7,84,79.33715057,96,0
00:28.7,84,79.33715057,96,0
00:28.7,84,79.33715057,96,0
00:28.7,84,79.33715057,96,0
00:28.7,84,79.43724823,96,0
00:28.7,84,79.43724823,96,0
00:28.7,84,79.43724823,96,0
00:28.7,84,79.68138885,96,0
00:28.7,84,79.68138885,96,0
00:28.7,84,79.68138885,96,0
00:28.7,84,80.00366211,96,0
00:28.7,84,80.00366211,96,0
00:28.8,84,80.00366211,96,0
00:28.8,84,80.00366211,96,0
00:28.8,84,80.3381424,96,0
00:28.8,84,80.3381424,96,0
00:28.8,84,80.3381424,96,0
00:28.8,84,80.62134552,96,0
00:28.8,84,80.62134552,96,0
00:28.8,84,80.62134552,96,0
00:28.8,84,80.80690002,96,0
00:28.8,84,80.80690002,96,0
00:28.8,84,80.80690002,96,0
00:28.8,84,80.80690002,96,0
00:28.8,84,80.8752594,96,0
00:28.8,84,80.8752594,96,0
00:28.8,84,80.8752594,96,0
00:28.8,84,80.81422424,96,0
00:28.8,84,80.81422424,96,0
00:28.8,84,80.81422424,96,0
00:28.8,84,80.62866974,96,0
00:28.8,84,80.62866974,96,0
00:28.8,84,80.62866974,96,0
00:28.8,84,80.62866974,96,0
00:28.8,84,80.34302521,96,0
00:28.8,84,80.34302521,96,0
00:28.8,84,80.34302521,96,0
00:28.9,84,79.98901367,96,0
00:28.9,84,79.98901367,96,0
00:28.9,84,79.98901367,96,0
00:28.9,84,79.59838104,96,0
00:28.9,84,79.59838104,96,0
00:28.9,84,79.59838104,96,0
00:28.9,84,79.59838104,96,0
00:28.9,84,79.20530701,96,0
00:28.9,84,79.20530701,96,0
00:28.9,84,79.20530701,96,0
00:28.9,84,78.83177185,96,0
00:28.9,84,78.83177185,96,0
00:28.9,84,78.83177185,96,0
00:28.9,84,78.49729156,96,0
00:28.9,84,78.49729156,96,0
00:28.9,84,78.49729156,96,0
00:28.9,84,78.49729156,96,0
00:28.9,84,78.20431519,96,0
00:28.9,84,78.20431519,96,0
00:28.9,84,78.20431519,96,0
00:28.9,84,77.95773315,96,0
00:28.9,84,77.95773315,96,0
00:28.9,84,77.95773315,96,0
00:28.9,84,77.75509644,96,0
00:28.9,84,77.75509644,96,0
00:29.0,84,77.75509644,96,0
00:29.0,84,77.75509644,96,0
00:29.0,84,77.59883881,96,0
00:29.0,84,77.59883881,96,0
00:29.0,84,77.59883881,96,0
00:29.0,84,77.4792099,96,0
00:29.0,84,77.4792099,96,0
00:29.0,84,77.4792099,96,0
00:29.0,84,77.39620209,96,0
00:29.0,84,77.39620209,96,0
00:29.0,84,77.39620209,96,0
00:29.0,84,77.39620209,96,0
00:00:29,84,77.34249115,96,0
00:29.0,84,77.34249115,96,0
00:29.0,84,77.34249115,96,0
00:29.0,84,77.31807709,96,0
00:29.0,84,77.31807709,96,0
00:29.0,84,77.31807709,96,0
00:29.0,84,77.31807709,96,0
00:29.0,84,77.31319427,96,0
00:29.0,84,77.31319427,96,0
00:29.0,84,77.31319427,96,0
00:29.0,84,77.32540131,96,0
00:29.0,84,77.32540131,96,0
00:29.0,84,77.32540131,96,0
00:29.1,84,77.34981537,96,0
00:29.1,84,77.34981537,96,0
00:29.1,84,77.34981537,96,0
00:29.1,84,77.34981537,96,0
00:29.1,84,77.38399506,96,0
00:29.1,84,77.38399506,96,0
00:29.1,84,77.38399506,96,0
00:29.1,84,77.42305756,96,0
00:29.1,84,77.42305756,96,0
00:29.1,84,77.42305756,96,0
00:29.1,84,77.46212006,96,0
00:29.1,84,77.46212006,96,0
00:29.1,84,77.46212006,96,0
00:29.1,84,77.46212006,96,0
00:29.1,84,77.49629974,96,0
00:29.1,84,77.49629974,96,0
00:29.1,84,77.49629974,96,0
00:29.1,84,77.52559662,96,0
00:29.1,84,77.52559662,96,0
00:29.1,84,77.52559662,96,0
00:29.1,84,77.55001068,96,0
00:29.1,84,77.55001068,96,0
00:29.1,84,77.55001068,96,0
00:29.1,84,77.56465912,96,0
00:29.1,84,77.56465912,96,0
00:29.2,84,77.56465912,96,0
00:29.2,84,77.56465912,96,0
00:29.2,84,77.57686615,96,0
00:29.2,84,77.57686615,96,0
00:29.2,84,77.57686615,96,0
00:29.2,84,77.58419037,96,0
00:29.2,84,77.58419037,96,0
00:29.2,84,77.58419037,96,0
00:29.2,84,77.58419037,96,0
00:29.2,84,77.58663177,96,0
00:29.2,84,77.58663177,96,0
00:29.2,84,77.58663177,96,0
00:29.2,84,77.57686615,96,0
00:29.2,84,77.57686615,96,0
00:29.2,84,77.57686615,96,0
00:29.2,84,77.54756927,96,0
00:29.2,84,77.54756927,96,0
00:29.2,84,77.54756927,96,0
00:29.2,84,77.49629974,96,0
00:29.2,84,77.49629974,96,0
00:29.2,84,77.49629974,96,0
00:29.2,84,77.49629974,96,0
00:29.2,84,77.42305756,96,0
00:29.2,84,77.42305756,96,0
00:29.2,84,77.42305756,96,0
00:29.3,84,77.33516693,96,0
00:29.3,84,77.33516693,96,0
00:29.3,84,77.33516693,96,0
00:29.3,84,77.33516693,96,0
00:29.3,84,77.23994446,96,0
00:29.3,84,77.23994446,96,0
00:29.3,84,77.23994446,96,0
00:29.3,84,77.14717102,96,0
00:29.3,84,77.14717102,96,0
00:29.3,84,77.14717102,96,0
00:29.3,84,77.06416321,96,0
00:29.3,84,77.06416321,96,0
00:29.3,84,77.06416321,96,0
00:29.3,84,76.99824524,96,0
00:29.3,84,76.99824524,96,0
00:29.3,84,76.99824524,96,0
00:29.3,84,76.99824524,96,0
00:29.3,84,76.96406555,96,0
00:29.3,84,76.96406555,96,0
00:29.3,84,76.96406555,96,0
00:29.3,84,76.99824524,96,0
00:29.3,84,76.99824524,96,0
00:29.3,84,76.99824524,96,0
00:29.3,84,76.99824524,96,0
00:29.3,84,77.17402649,96,0
00:29.4,84,77.17402649,96,0
00:29.4,84,77.17402649,96,0
00:29.4,84,77.61104584,96,0
00:29.4,84,77.61104584,96,0
00:29.4,84,77.61104584,96,0
00:29.4,84,78.41428375,96,0
00:29.4,84,78.41428375,96,0
00:29.4,84,78.41428375,96,0
00:29.4,84,78.41428375,96,0
00:29.4,84,79.63744354,96,0
00:29.4,84,79.63744354,96,0
00:29.4,84,79.63744354,96,0
00:29.4,84,81.23170471,96,0
00:29.4,84,81.23170471,96,0
00:29.4,84,81.23170471,96,0
00:29.4,84,83.04081726,96,0
00:29.4,84,83.04081726,96,0
00:29.4,84,83.04081726,96,0
00:29.4,84,83.04081726,96,0
00:29.4,84,84.82307434,96,0
00:29.4,84,84.82307434,96,0
00:29.4,84,84.82307434,96,0
00:29.4,84,86.32212067,96,0
00:29.4,84,86.32212067,96,0
00:29.4,84,86.32212067,96,0
00:29.5,84,87.34752655,96,0
00:29.5,84,87.34752655,96,0
00:29.5,84,87.34752655,96,0
00:29.5,84,87.81384277,96,0
00:29.5,84,87.81384277,96,0
00:29.5,84,87.81384277,96,0
00:29.5,84,87.81384277,96,0
00:29.5,84,87.74059296,96,0
00:29.5,84,87.74059296,96,0
00:29.5,84,87.74059296,96,0
00:29.5,84,87.22544861,96,0
00:29.5,84,87.22544861,96,0
00:29.5,84,87.22544861,96,0
00:29.5,84,87.22544861,96,0
00:29.5,84,86.40268707,96,0
00:29.5,84,86.40268707,96,0
00:29.5,84,86.40268707,96,0
00:29.5,84,85.39437103,96,0
00:29.5,84,85.39437103,96,0
00:29.5,84,85.39437103,96,0
00:29.5,84,84.30792999,96,0
00:29.5,84,84.30792999,96,0
00:29.5,84,84.30792999,96,0
00:29.5,84,83.21903992,96,0
00:29.5,84,83.21903992,96,0
00:29.6,84,83.21903992,96,0
00:29.6,84,83.21903992,96,0
00:29.6,84,82.17166138,96,0
00:29.6,84,82.17166138,96,0
00:29.6,84,82.17166138,96,0
00:29.6,84,81.20973206,96,0
00:29.6,84,81.20973206,96,0
00:29.6,84,81.20973206,96,0
00:29.6,84,81.20973206,96,0
00:29.6,84,80.36499786,96,0
00:29.6,84,80.36499786,96,0
00:29.6,84,80.36499786,96,0
00:29.6,84,79.67894745,96,0
00:29.6,84,79.67894745,96,0
00:29.6,84,79.67894745,96,0
00:29.6,84,79.18577576,96,0
00:29.6,84,79.18577576,96,0
00:29.6,84,79.18577576,96,0
00:29.6,84,78.91233826,96,0
00:29.6,84,78.91233826,96,0
00:29.6,84,78.91233826,96,0
00:29.6,84,78.91233826,96,0
00:29.6,84,78.85862732,96,0
00:29.6,84,78.85862732,96,0
00:29.6,84,78.85862732,96,0
00:29.7,84,78.99778748,96,0
00:29.7,84,78.99778748,96,0
00:29.7,84,78.99778748,96,0
00:29.7,84,78.99778748,96,0
00:29.7,84,79.29076385,96,0
00:29.7,84,79.29076385,96,0
00:29.7,84,79.29076385,96,0
00:29.7,84,79.66674042,96,0
00:29.7,84,79.66674042,96,0
00:29.7,84,79.66674042,96,0
00:29.7,84,80.05981445,96,0
00:29.7,84,80.05981445,96,0
00:29.7,84,80.05981445,96,0
00:29.7,84,80.39673615,96,0
00:29.7,84,80.39673615,96,0
00:29.7,84,80.39673615,96,0
00:29.7,84,80.39673615,96,0
00:29.7,84,80.63111115,96,0
00:29.7,84,80.63111115,96,0
00:29.7,84,80.63111115,96,0
00:29.7,84,80.7287674,96,0
00:29.7,84,80.7287674,96,0
00:29.7,84,80.7287674,96,0
00:29.7,84,80.7287674,96,0
00:29.7,84,80.67993927,96,0
00:29.8,84,80.67993927,96,0
00:29.8,84,80.67993927,96,0
00:29.8,84,80.50415802,96,0
00:29.8,84,80.50415802,96,0
00:29.8,84,80.50415802,96,0
00:29.8,84,80.22827148,96,0
00:29.8,84,80.22827148,96,0
00:29.8,84,80.22827148,96,0
00:29.8,84,79.89379883,96,0
00:29.8,84,79.89379883,96,0
00:29.8,84,79.89379883,96,0
00:29.8,84,79.89379883,96,0
00:29.8,82,79.53246307,96,0
00:29.8,82,79.53246307,96,0
00:29.8,82,79.53246307,96,0
00:29.8,82,79.17112732,96,0
00:29.8,82,79.17112732,96,0
00:29.8,82,79.17112732,96,0
00:29.8,82,78.82688904,96,0
00:29.8,82,78.82688904,96,0
00:29.8,82,78.82688904,96,0
00:29.8,82,78.82688904,96,0
00:29.8,82,78.51438141,96,0
00:29.8,82,78.51438141,96,0
00:29.8,82,78.51438141,96,0
00:29.9,82,78.23849487,96,0
00:29.9,82,78.23849487,96,0
00:29.9,82,78.23849487,96,0
00:29.9,82,78.00411987,96,0
00:29.9,82,78.00411987,96,0
00:29.9,82,78.00411987,96,0
00:29.9,82,78.00411987,96,0
00:29.9,82,77.80392456,96,0
00:29.9,82,77.80392456,96,0
00:29.9,82,77.80392456,96,0
00:29.9,82,77.64278412,96,0
00:29.9,82,77.64278412,96,0
00:29.9,82,77.64278412,96,0
00:29.9,82,77.5182724,96,0
00:29.9,82,77.5182724,96,0
00:29.9,82,77.5182724,96,0
00:29.9,82,77.5182724,96,0
00:29.9,82,77.41817474,96,0
00:29.9,82,77.41817474,96,0
00:29.9,82,77.41817474,96,0
00:29.9,82,77.34493256,96,0
00:29.9,82,77.34493256,96,0
00:29.9,82,77.34493256,96,0
00:29.9,82,77.30098724,96,0
00:29.9,82,77.30098724,96,0
00:30.0,82,77.30098724,96,0
00:30.0,82,77.30098724,96,0
00:30.0,82,77.28145599,96,0
00:30.0,82,77.28145599,96,0
00:30.0,82,77.28145599,96,0
00:30.0,82,77.28145599,96,0
00:30.0,82,77.28145599,96,0
00:30.0,82,77.28145599,96,0
00:30.0,82,77.30098724,96,0
00:30.0,82,77.30098724,96,0
00:30.0,82,77.30098724,96,0
00:30.0,82,77.30098724,96,0
00:00:30,82,77.34249115,96,0
00:30.0,82,77.34249115,96,0
00:30.0,82,77.34249115,96,0
00:30.0,82,77.39864349,96,0
00:30.0,82,77.39864349,96,0
00:30.0,82,77.39864349,96,0
00:30.0,82,77.39864349,96,0
00:30.0,82,77.46944427,96,0
00:30.0,82,77.46944427,96,0
00:30.0,82,77.46944427,96,0
00:30.0,82,77.55001068,96,0
00:30.0,82,77.55001068,96,0
00:30.0,82,77.55001068,96,0
00:30.1,82,77.62569427,96,0
00:30.1,82,77.62569427,96,0
00:30.1,82,77.62569427,96,0
00:30.1,82,77.62569427,96,0
00:30.1,82,77.69405365,96,0
00:30.1,82,77.69405365,96,0
00:30.1,82,77.69405365,96,0
00:30.1,82,77.74532318,96,0
00:30.1,82,77.74532318,96,0
00:30.1,82,77.74532318,96,0
00:30.1,82,77.77218628,96,0
00:30.1,82,77.77218628,96,0
00:30.1,82,77.77218628,96,0
00:30.1,82,77.77218628,96,0
00:30.1,82,77.77706909,96,0
00:30.1,82,77.77706909,96,0
00:30.1,82,77.77706909,96,0
00:30.1,82,77.76486206,96,0
00:30.1,82,77.76486206,96,0
00:30.1,82,77.76486206,96,0
00:30.1,82,77.72823334,96,0
00:30.1,82,77.72823334,96,0
00:30.1,82,77.72823334,96,0
00:30.1,82,77.67696381,96,0
00:30.1,82,77.67696381,96,0
00:30.2,82,77.67696381,96,0
00:30.2,82,77.67696381,96,0
00:30.2,82,77.61104584,96,0
00:30.2,82,77.61104584,96,0
00:30.2,82,77.61104584,96,0
00:30.2,82,77.53292084,96,0
00:30.2,82,77.53292084,96,0
00:30.2,82,77.53292084,96,0
00:30.2,82,77.44747162,96,0
00:30.2,82,77.44747162,96,0
00:30.2,82,77.44747162,96,0
00:30.2,82,77.44747162,96,0
00:30.2,82,77.36934662,96,0
00:30.2,82,77.36934662,96,0
00:30.2,82,77.36934662,96,0
00:30.2,82,77.31563568,96,0
00:30.2,82,77.31563568,96,0
00:30.2,82,77.31563568,96,0
00:30.2,82,77.31807709,96,0
00:30.2,82,77.31807709,96,0
00:30.2,82,77.31807709,96,0
00:30.2,82,77.31807709,96,0
00:30.2,82,77.44503021,96,0
00:30.2,82,77.44503021,96,0
00:30.2,82,77.44503021,96,0
00:30.3,82,77.79415894,96,0
00:30.3,82,77.79415894,96,0
00:30.3,82,77.79415894,96,0
00:30.3,82,78.46311188,96,0
00:30.3,82,78.46311188,96,0
00:30.3,82,78.46311188,96,0
00:30.3,82,78.46311188,96,0
00:30.3,82,79.50804901,96,0
00:30.3,82,79.50804901,96,0
00:30.3,82,79.50804901,96,0
00:30.3,82,80.89234924,96,0
00:30.3,82,80.89234924,96,0
00:30.3,82,80.89234924,96,0
00:30.3,82,82.48416901,96,0
00:30.3,82,82.48416901,96,0
00:30.3,82,82.48416901,96,0
00:30.3,82,82.48416901,96,0
00:30.3,82,84.07598877,96,0
00:30.3,82,84.07598877,96,0
00:30.3,82,84.07598877,96,0
00:30.3,82,85.44319916,96,0
00:30.3,82,85.44319916,96,0
00:30.3,82,85.44319916,96,0
00:30.3,82,86.39780426,96,0
00:30.3,82,86.39780426,96,0
00:30.4,82,86.39780426,96,0
00:30.4,82,86.39780426,96,0
00:30.4,82,86.85923767,96,0
00:30.4,82,86.85923767,96,0
00:30.4,82,86.85923767,96,0
00:30.4,82,86.83970642,96,0
00:30.4,82,86.83970642,96,0
00:30.4,82,86.83970642,96,0
00:30.4,82,86.83970642,96,0
00:30.4,82,86.4148941,96,0
00:30.4,82,86.4148941,96,0
00:30.4,82,86.4148941,96,0
00:30.4,82,85.68978119,96,0
00:30.4,82,85.68978119,96,0
00:30.4,82,85.68978119,96,0
00:30.4,82,84.78401184,96,0
00:30.4,82,84.78401184,96,0
00:30.4,82,84.78401184,96,0
00:30.4,82,84.78401184,96,0
00:30.4,82,83.80010986,96,0
00:30.4,82,83.80010986,96,0
00:30.4,82,83.80010986,96,0
00:30.4,82,82.80155945,96,0
00:30.4,82,82.80155945,96,0
00:30.4,82,82.80155945,96,0
00:30.5,82,81.83963013,96,0
00:30.5,82,81.83963013,96,0
00:30.5,82,81.83963013,96,0
00:30.5,78,80.9533844,96,0
00:30.5,78,80.9533844,96,0
00:30.5,78,80.9533844,96,0
00:30.5,78,80.9533844,96,0
00:30.5,78,80.17456055,96,0
00:30.5,78,80.17456055,96,0
00:30.5,78,80.17456055,96,0
00:30.5,78,79.53734589,96,0
00:30.5,78,79.53734589,96,0
00:30.5,78,79.53734589,96,0
00:30.5,78,79.53734589,96,0
00:30.5,78,79.07835388,96,0
00:30.5,78,79.07835388,96,0
00:30.5,78,79.07835388,96,0
00:30.5,78,78.82444763,96,0
00:30.5,78,78.82444763,96,0
00:30.5,78,78.82444763,96,0
00:30.5,78,78.78538513,96,0
00:30.5,78,78.78538513,96,0
00:30.5,78,78.78538513,96,0
00:30.5,78,78.94163513,96,0
00:30.5,78,78.94163513,96,0
00:30.6,78,78.94163513,96,0
00:30.6,78,78.94163513,96,0
00:30.6,78,79.24681091,96,0
00:30.6,78,79.24681091,96,0
00:30.6,78,79.24681091,96,0
00:30.6,78,79.63744354,96,0
00:30.6,78,79.63744354,96,0
00:30.6,78,79.63744354,96,0
00:30.6,78,80.0402832,96,0
00:30.6,78,80.0402832,96,0
00:30.6,78,80.0402832,96,0
00:30.6,78,80.0402832,96,0
00:30.6,78,80.39185333,96,0
00:30.6,78,80.39185333,96,0
00:30.6,78,80.39185333,96,0
00:30.6,78,80.63111115,96,0
00:30.6,78,80.63111115,96,0
00:30.6,78,80.63111115,96,0
00:30.6,78,80.72632599,96,0
00:30.6,78,80.72632599,96,0
00:30.6,78,80.72632599,96,0
00:30.6,78,80.72632599,96,0
00:30.6,78,80.67505646,96,0
00:30.6,78,80.67505646,96,0
00:30.6,78,80.67505646,96,0
00:30.7,78,80.4968338,96,0
00:30.7,78,80.4968338,96,0
00:30.7,78,80.4968338,96,0
00:30.7,78,80.22338867,96,0
00:30.7,78,80.22338867,96,0
00:30.7,78,80.22338867,96,0
00:30.7,78,80.22338867,96,0
00:30.7,78,79.89624023,96,0
00:30.7,78,79.89624023,96,0
00:30.7,78,79.89624023,96,0
00:30.7,78,79.54711151,96,0
00:30.7,78,79.54711151,96,0
00:30.7,78,79.54711151,96,0
00:30.7,78,79.20042419,96,0
00:30.7,78,79.20042419,96,0
00:30.7,78,79.20042419,96,0
00:30.7,78,79.20042419,96,0
00:30.7,78,78.87327576,96,0
00:30.7,78,78.87327576,96,0
00:30.7,78,78.87327576,96,0
00:30.7,78,78.57053375,96,0
00:30.7,78,78.57053375,96,0
00:30.7,78,78.57053375,96,0
00:30.7,78,78.30686188,96,0
00:30.7,78,78.30686188,96,0
00:30.8,78,78.30686188,96,0
00:30.8,78,78.30686188,96,0
00:30.8,78,78.07736206,96,0
00:30.8,78,78.07736206,96,0
00:30.8,78,78.07736206,96,0
00:30.8,78,77.89425659,96,0
00:30.8,78,77.89425659,96,0
00:30.8,78,77.89425659,96,0
00:30.8,78,77.75265503,96,0
00:30.8,78,77.75265503,96,0
00:30.8,78,77.75265503,96,0
00:30.8,78,77.75265503,96,0
00:30.8,78,77.65010834,96,0
00:30.8,78,77.65010834,96,0
00:30.8,78,77.65010834,96,0
00:30.8,78,77.57686615,96,0
00:30.8,78,77.57686615,96,0
00:30.8,78,77.57686615,96,0
00:30.8,78,77.53047943,96,0
00:30.8,78,77.53047943,96,0
00:30.8,78,77.53047943,96,0
00:30.8,78,77.53047943,96,0
00:30.8,78,77.50606537,96,0
00:30.8,78,77.50606537,96,0
00:30.8,78,77.50606537,96,0
00:30.9,78,77.50118256,96,0
00:30.9,78,77.50118256,96,0
00:30.9,78,77.50118256,96,0
00:30.9,78,77.51094818,96,0
00:30.9,78,77.51094818,96,0
00:30.9,78,77.51094818,96,0
00:30.9,78,77.51094818,96,0
00:30.9,78,77.53780365,96,0
00:30.9,78,77.53780365,96,0
00:30.9,78,77.53780365,96,0
00:30.9,78,77.57686615,96,0
00:30.9,78,77.57686615,96,0
00:30.9,78,77.57686615,96,0
00:30.9,78,77.62813568,96,0
00:30.9,78,77.62813568,96,0
00:30.9,78,77.62813568,96,0
00:30.9,78,77.62813568,96,0
00:30.9,78,77.69161224,96,0
00:30.9,78,77.69161224,96,0
00:30.9,78,77.69161224,96,0
00:30.9,78,77.76486206,96,0
00:30.9,78,77.76486206,96,0
00:30.9,78,77.76486206,96,0
00:30.9,78,77.83566284,96,0
00:30.9,78,77.83566284,96,0
00:31.0,78,77.83566284,96,0
00:31.0,78,77.83566284,96,0
00:31.0,78,77.90402222,96,0
00:31.0,78,77.90402222,96,0
00:31.0,78,77.90402222,96,0
00:31.0,78,77.95773315,96,0
00:31.0,78,77.95773315,96,0
00:31.0,78,77.95773315,96,0
00:31.0,78,77.98947144,96,0
00:31.0,78,77.98947144,96,0
00:31.0,78,77.98947144,96,0
00:31.0,78,77.98947144,96,0
00:00:31,78,77.99923706,96,0
00:31.0,78,77.99923706,96,0
00:31.0,78,77.99923706,96,0
00:31.0,78,77.98458862,96,0
00:31.0,78,77.98458862,96,0
00:31.0,78,77.98458862,96,0
00:31.0,78,77.98458862,96,0
00:31.0,78,77.94796753,96,0
00:31.0,78,77.94796753,96,0
00:31.0,78,77.94796753,96,0
00:31.0,78,77.89181519,96,0
00:31.0,78,77.89181519,96,0
00:31.0,78,77.89181519,96,0
00:31.1,78,77.82833862,96,0
00:31.1,78,77.82833862,96,0
00:31.1,78,77.82833862,96,0
00:31.1,78,77.82833862,96,0
00:31.1,78,77.76974487,96,0
00:31.1,78,77.76974487,96,0
00:31.1,78,77.76974487,96,0
00:31.1,78,77.73311615,96,0
00:31.1,78,77.73311615,96,0
00:31.1,78,77.73311615,96,0
00:31.1,78,77.75021362,96,0
00:31.1,78,77.75021362,96,0
00:31.1,78,77.75021362,96,0
00:31.1,78,77.75021362,96,0
00:31.1,78,77.88693237,96,0
00:31.1,78,77.88693237,96,0
00:31.1,78,77.88693237,96,0
00:31.1,78,78.23849487,96,0
00:31.1,78,78.23849487,96,0
00:31.1,78,78.23849487,96,0
00:31.1,78,78.89524841,96,0
00:31.1,78,78.89524841,96,0
00:31.1,78,78.89524841,96,0
00:31.1,78,79.90600586,96,0
00:31.1,78,79.90600586,96,0
00:31.2,78,79.90600586,96,0
00:31.2,78,79.90600586,96,0
00:31.2,78,81.24635315,96,0
00:31.2,78,81.24635315,96,0
00:31.2,78,81.24635315,96,0
00:31.2,78,82.7844696,96,0
00:31.2,78,82.7844696,96,0
00:31.2,78,82.7844696,96,0
00:31.2,78,82.7844696,96,0
00:31.2,78,84.31769562,96,0
00:31.2,78,84.31769562,96,0
00:31.2,78,84.31769562,96,0
00:31.2,78,85.62142181,96,0
00:31.2,78,85.62142181,96,0
00:31.2,78,85.62142181,96,0
00:31.2,78,86.52719879,96,0
00:31.2,78,86.52719879,96,0
00:31.2,78,86.52719879,96,0
00:31.2,78,86.9495697,96,0
00:31.2,78,86.9495697,96,0
00:31.2,78,86.9495697,96,0
00:31.2,78,86.9495697,96,0
00:31.2,78,86.89585876,96,0
00:31.2,78,86.89585876,96,0
00:31.2,78,86.89585876,96,0
00:31.3,78,86.44907379,96,0
00:31.3,78,86.44907379,96,0
00:31.3,78,86.44907379,96,0
00:31.3,78,86.44907379,96,0
00:31.3,78,85.71907806,96,0
00:31.3,78,85.71907806,96,0
00:31.3,78,85.71907806,96,0
00:31.3,78,84.82795715,96,0
00:31.3,78,84.82795715,96,0
00:31.3,78,84.82795715,96,0
00:31.3,78,83.86846924,96,0
00:31.3,78,83.86846924,96,0
00:31.3,78,83.86846924,96,0
00:31.3,78,82.90653992,96,0
00:31.3,78,82.90653992,96,0
00:31.3,78,82.90653992,96,0
00:31.3,78,82.90653992,96,0
00:31.3,78,81.9836731,96,0
00:31.3,78,81.9836731,96,0
00:31.3,78,81.9836731,96,0
00:31.3,78,81.13648987,96,0
00:31.3,78,81.13648987,96,0
00:31.3,78,81.13648987,96,0
00:31.3,78,81.13648987,96,0
00:31.3,78,80.38941193,96,0
00:31.4,78,80.38941193,96,0
00:31.4,78,80.38941193,96,0
00:31.4,78,79.78149414,96,0
00:31.4,78,79.78149414,96,0
00:31.4,78,79.78149414,96,0
00:31.4,78,79.3493576,96,0
00:31.4,78,79.3493576,96,0
00:31.4,78,79.3493576,96,0
00:31.4,78,79.3493576,96,0
00:31.4,78,79.11741638,96,0
00:31.4,78,79.11741638,96,0
00:31.4,78,79.11741638,96,0
00:31.4,78,79.08811951,96,0
00:31.4,78,79.08811951,96,0
00:31.4,78,79.08811951,96,0
00:31.4,78,79.2419281,96,0
00:31.4,78,79.2419281,96,0
00:31.4,78,79.2419281,96,0
00:31.4,78,79.2419281,96,0
00:31.4,78,79.52513885,96,0
00:31.4,78,79.52513885,96,0
00:31.4,78,79.52513885,96,0
00:31.4,78,79.87915039,96,0
00:31.4,78,79.87915039,96,0
00:31.4,78,79.87915039,96,0
00:31.5,78,80.23803711,96,0
00:31.5,78,80.23803711,96,0
00:31.5,78,80.23803711,96,0
00:31.5,76,80.54322052,96,0
00:31.5,76,80.54322052,96,0
00:31.5,76,80.54322052,96,0
00:31.5,76,80.54322052,96,0
00:31.5,76,80.75074768,96,0
00:31.5,76,80.75074768,96,0
00:31.5,76,80.75074768,96,0
00:31.5,76,80.83375549,96,0
00:31.5,76,80.83375549,96,0
00:31.5,76,80.83375549,96,0
00:31.5,76,80.83375549,96,0
00:31.5,76,80.79469299,96,0
00:31.5,76,80.79469299,96,0
00:31.5,76,80.79469299,96,0
00:31.5,76,80.63599396,96,0
00:31.5,76,80.63599396,96,0
00:31.5,76,80.63599396,96,0
00:31.5,76,80.38941193,96,0
00:31.5,76,80.38941193,96,0
00:31.5,76,80.38941193,96,0
00:31.5,76,80.0769043,96,0
00:31.5,76,80.0769043,96,0
00:31.6,76,80.0769043,96,0
00:31.6,76,80.0769043,96,0
00:31.6,76,79.73265839,96,0
00:31.6,76,79.73265839,96,0
00:31.6,76,79.73265839,96,0
00:31.6,76,79.37865448,96,0
00:31.6,76,79.37865448,96,0
00:31.6,76,79.37865448,96,0
00:31.6,76,79.37865448,96,0
00:31.6,76,79.03684998,96,0
00:31.6,76,79.03684998,96,0
00:31.6,76,79.03684998,96,0
00:31.6,76,78.72190094,96,0
00:31.6,76,78.72190094,96,0
00:31.6,76,78.72190094,96,0
00:31.6,76,78.44602203,96,0
00:31.6,76,78.44602203,96,0
00:31.6,76,78.44602203,96,0
00:31.6,76,78.21408081,96,0
00:31.6,76,78.21408081,96,0
00:31.6,76,78.21408081,96,0
00:31.6,76,78.21408081,96,0
00:31.6,76,78.02609253,96,0
00:31.6,76,78.02609253,96,0
00:31.6,76,78.02609253,96,0
00:31.7,76,77.87960815,96,0
00:31.7,76,77.87960815,96,0
00:31.7,76,77.87960815,96,0
00:31.7,76,77.87960815,96,0
00:31.7,76,77.76974487,96,0
00:31.7,76,77.76974487,96,0
00:31.7,76,77.76974487,96,0
00:31.7,76,77.69893646,96,0
00:31.7,76,77.69893646,96,0
00:31.7,76,77.69893646,96,0
00:31.7,76,77.65987396,96,0
00:31.7,76,77.65987396,96,0
00:31.7,76,77.65987396,96,0
00:31.7,76,77.65010834,96,0
00:31.7,76,77.65010834,96,0
00:31.7,76,77.65010834,96,0
00:31.7,76,77.65010834,96,0
00:31.7,76,77.65987396,96,0
00:31.7,76,77.65987396,96,0
00:31.7,76,77.65987396,96,0
00:31.7,76,77.68672943,96,0
00:31.7,76,77.68672943,96,0
00:31.7,76,77.68672943,96,0
00:31.7,76,77.68672943,96,0
00:31.7,76,77.72579193,96,0
00:31.8,76,77.72579193,96,0
00:31.8,76,77.72579193,96,0
00:31.8,76,77.77218628,96,0
00:31.8,76,77.77218628,96,0
00:31.8,76,77.77218628,96,0
00:31.8,76,77.83078003,96,0
00:31.8,76,77.83078003,96,0
00:31.8,76,77.83078003,96,0
00:31.8,76,77.89425659,96,0
00:31.8,76,77.89425659,96,0
00:31.8,76,77.89425659,96,0
00:31.8,76,77.89425659,96,0
00:31.8,76,77.96505737,96,0
00:31.8,76,77.96505737,96,0
00:31.8,76,77.96505737,96,0
00:31.8,76,78.03585815,96,0
00:31.8,76,78.03585815,96,0
00:31.8,76,78.03585815,96,0
00:31.8,76,78.09933472,96,0
00:31.8,76,78.09933472,96,0
00:31.8,76,78.09933472,96,0
00:31.8,76,78.09933472,96,0
00:31.8,76,78.14816284,96,0
00:31.8,76,78.14816284,96,0
00:31.8,76,78.14816284,96,0
00:31.9,76,78.1725769,96,0
00:31.9,76,78.1725769,96,0
00:31.9,76,78.1725769,96,0
00:31.9,76,78.1725769,96,0
00:31.9,76,78.1725769,96,0
00:31.9,76,78.1725769,96,0
00:31.9,76,78.1725769,96,0
00:31.9,76,78.14328003,96,0
00:31.9,76,78.14328003,96,0
00:31.9,76,78.14328003,96,0
00:31.9,76,78.0920105,96,0
00:31.9,76,78.0920105,96,0
00:31.9,76,78.0920105,96,0
00:31.9,76,78.02365112,96,0
00:31.9,76,78.02365112,96,0
00:31.9,76,78.02365112,96,0
00:31.9,76,78.02365112,96,0
00:31.9,76,77.94796753,96,0
00:31.9,76,77.94796753,96,0
00:31.9,76,77.94796753,96,0
00:31.9,76,77.87472534,96,0
00:31.9,76,77.87472534,96,0
00:31.9,76,77.87472534,96,0
00:31.9,76,77.81369019,96,0
00:31.9,76,77.81369019,96,0
00:32.0,76,77.81369019,96,0
00:32.0,76,77.81369019,96,0
00:32.0,76,77.77462769,96,0
00:32.0,76,77.77462769,96,0
00:32.0,76,77.77462769,96,0
00:32.0,76,77.77462769,96,0
00:32.0,76,77.77462769,96,0
00:32.0,76,77.77462769,96,0
00:32.0,76,77.85519409,96,0
00:32.0,76,77.85519409,96,0
00:32.0,76,77.85519409,96,0
00:32.0,76,77.85519409,96,0
00:00:32,76,78.10421753,96,0
00:32.0,76,78.10421753,96,0
00:32.0,76,78.10421753,96,0
00:32.0,76,78.61692047,96,0
00:32.0,76,78.61692047,96,0
00:32.0,76,78.61692047,96,0
00:32.0,76,78.61692047,96,0
00:32.0,76,79.48119354,96,0
00:32.0,76,79.48119354,96,0
00:32.0,76,79.48119354,96,0
00:32.0,76,80.70679474,96,0
00:32.0,76,80.70679474,96,0
00:32.0,76,80.70679474,96,0
00:32.1,76,82.21560669,96,0
00:32.1,76,82.21560669,96,0
00:32.1,76,82.21560669,96,0
00:32.1,76,82.21560669,96,0
00:32.1,76,83.81964111,96,0
00:32.1,76,83.81964111,96,0
00:32.1,76,83.81964111,96,0
00:32.1,76,85.28939056,96,0
00:32.1,76,85.28939056,96,0
00:32.1,76,85.28939056,96,0
00:32.1,76,86.41733551,96,0
00:32.1,76,86.41733551,96,0
00:32.1,76,86.41733551,96,0
00:32.1,76,86.41733551,96,0
00:32.1,76,87.07896423,96,0
00:32.1,76,87.07896423,96,0
00:32.1,76,87.07896423,96,0
00:32.1,76,87.23765564,96,0
00:32.1,76,87.23765564,96,0
00:32.1,76,87.23765564,96,0
00:32.1,76,86.95201111,96,0
00:32.1,76,86.95201111,96,0
00:32.1,76,86.95201111,96,0
00:32.1,76,86.32456207,96,0
00:32.1,76,86.32456207,96,0
00:32.2,76,86.32456207,96,0
00:32.2,76,86.32456207,96,0
00:32.2,76,85.47493744,96,0
00:32.2,76,85.47493744,96,0
00:32.2,76,85.47493744,96,0
00:32.2,76,84.50812531,96,0
00:32.2,76,84.50812531,96,0
00:32.2,76,84.50812531,96,0
00:32.2,76,84.50812531,96,0
00:32.2,76,83.50469208,96,0
00:32.2,76,83.50469208,96,0
00:32.2,76,83.50469208,96,0
00:32.2,76,82.52323151,96,0
00:32.2,76,82.52323151,96,0
00:32.2,76,82.52323151,96,0
00:32.2,76,81.60036469,96,0
00:32.2,76,81.60036469,96,0
00:32.2,76,81.60036469,96,0
00:32.2,76,80.75563049,96,0
00:32.2,76,80.75563049,96,0
00:32.2,76,80.75563049,96,0
00:32.2,76,80.75563049,96,0
00:32.2,76,80.02563477,96,0
00:32.2,76,80.02563477,96,0
00:32.2,76,80.02563477,96,0
00:32.3,76,79.44213104,96,0
00:32.3,76,79.44213104,96,0
00:32.3,76,79.44213104,96,0
00:32.3,76,79.44213104,96,0
00:32.3,76,79.04417419,96,0
00:32.3,76,79.04417419,96,0
00:32.3,76,79.04417419,96,0
00:32.3,76,78.84886169,96,0
00:32.3,76,78.84886169,96,0
00:32.3,76,78.84886169,96,0
00:32.3,76,78.86106873,96,0
00:32.3,76,78.86106873,96,0
00:32.3,76,78.86106873,96,0
00:32.3,76,79.05149841,96,0
00:32.3,76,79.05149841,96,0
00:32.3,76,79.05149841,96,0
00:32.3,76,79.05149841,96,0
00:32.3,76,79.36888885,96,0
00:32.3,76,79.36888885,96,0
00:32.3,76,79.36888885,96,0
00:32.3,76,79.74242401,96,0
00:32.3,76,79.74242401,96,0
00:32.3,76,79.74242401,96,0
00:32.3,76,80.10620117,96,0
00:32.3,76,80.10620117,96,0
00:32.4,76,80.10620117,96,0
00:32.4,76,80.10620117,96,0
00:32.4,76,80.39917755,96,0
00:32.4,76,80.39917755,96,0
00:32.4,76,80.39917755,96,0
00:32.4,76,80.58228302,96,0
00:32.4,76,80.58228302,96,0
00:32.4,76,80.58228302,96,0
00:32.4,76,80.58228302,96,0
00:32.4,76,80.63355255,96,0
00:32.4,76,80.63355255,96,0
00:32.4,76,80.63355255,96,0
00:32.4,76,80.56031036,96,0
00:32.4,76,80.56031036,96,0
00:32.4,76,80.56031036,96,0
00:32.4,76,80.37476349,96,0
00:32.4,76,80.37476349,96,0
00:32.4,76,80.37476349,96,0
00:32.4,76,80.10620117,96,0
00:32.4,76,80.10620117,96,0
00:32.4,76,80.10620117,96,0
00:32.4,76,80.10620117,96,0
00:32.4,76,79.78149414,96,0
00:32.4,76,79.78149414,96,0
00:32.4,76,79.78149414,96,0
00:32.5,76,79.43968964,96,0
00:32.5,76,79.43968964,96,0
00:32.5,76,79.43968964,96,0
00:32.5,74,79.10032654,96,0
00:32.5,74,79.10032654,96,0
00:32.5,74,79.10032654,96,0
00:32.5,74,79.10032654,96,0
00:32.5,74,78.78294373,96,0
00:32.5,74,78.78294373,96,0
00:32.5,74,78.78294373,96,0
00:32.5,74,78.49729156,96,0
00:32.5,74,78.49729156,96,0
00:32.5,74,78.49729156,96,0
00:32.5,74,78.25070953,96,0
00:32.5,74,78.25070953,96,0
00:32.5,74,78.25070953,96,0
00:32.5,74,78.25070953,96,0
00:32.5,74,78.03829956,96,0
00:32.5,74,78.03829956,96,0
00:32.5,74,78.03829956,96,0
00:32.5,74,77.86740112,96,0
00:32.5,74,77.86740112,96,0
00:32.5,74,77.86740112,96,0
00:32.5,74,77.73799896,96,0
00:32.5,74,77.73799896,96,0
00:32.6,74,77.73799896,96,0
00:32.6,74,77.73799896,96,0
00:32.6,74,77.65499115,96,0
00:32.6,74,77.65499115,96,0
00:32.6,74,77.65499115,96,0
00:32.6,74,77.61104584,96,0
00:32.6,74,77.61104584,96,0
00:32.6,74,77.61104584,96,0
00:32.6,74,77.60128021,96,0
00:32.6,74,77.60128021,96,0
00:32.6,74,77.60128021,96,0
00:32.6,74,77.60128021,96,0
00:32.6,74,77.61348724,96,0
00:32.6,74,77.61348724,96,0
00:32.6,74,77.61348724,96,0
00:32.6,74,77.63790131,96,0
00:32.6,74,77.63790131,96,0
00:32.6,74,77.63790131,96,0
00:32.6,74,77.67208099,96,0
00:32.6,74,77.67208099,96,0
00:32.6,74,77.67208099,96,0
00:32.6,74,77.67208099,96,0
00:32.6,74,77.71846771,96,0
00:32.6,74,77.71846771,96,0
00:32.6,74,77.71846771,96,0
00:32.7,74,77.77218628,96,0
00:32.7,74,77.77218628,96,0
00:32.7,74,77.77218628,96,0
00:32.7,74,77.83566284,96,0
00:32.7,74,77.83566284,96,0
00:32.7,74,77.83566284,96,0
00:32.7,74,77.83566284,96,0
00:32.7,74,77.90646362,96,0
00:32.7,74,77.90646362,96,0
00:32.7,74,77.90646362,96,0
00:32.7,74,77.974823,96,0
00:32.7,74,77.974823,96,0
00:32.7,74,77.974823,96,0
00:32.7,74,78.03829956,96,0
00:32.7,74,78.03829956,96,0
00:32.7,74,78.03829956,96,0
00:32.7,74,78.03829956,96,0
00:32.7,74,78.08956909,96,0
00:32.7,74,78.08956909,96,0
00:32.7,74,78.08956909,96,0
00:32.7,74,78.11886597,96,0
00:32.7,74,78.11886597,96,0
00:32.7,74,78.11886597,96,0
00:32.7,74,78.11642456,96,0
00:32.7,74,78.11642456,96,0
00:32.8,74,78.11642456,96,0
00:32.8,74,78.11642456,96,0
00:32.8,74,78.08712769,96,0
00:32.8,74,78.08712769,96,0
00:32.8,74,78.08712769,96,0
00:32.8,74,78.03585815,96,0
00:32.8,74,78.03585815,96,0
00:32.8,74,78.03585815,96,0
00:32.8,74,77.96505737,96,0
00:32.8,74,77.96505737,96,0
00:32.8,74,77.96505737,96,0
00:32.8,74,77.96505737,96,0
00:32.8,74,77.87960815,96,0
00:32.8,74,77.87960815,96,0
00:32.8,74,77.87960815,96,0
00:32.8,74,77.78927612,96,0
00:32.8,74,77.78927612,96,0
00:32.8,74,77.78927612,96,0
00:32.8,74,77.70137787,96,0
00:32.8,74,77.70137787,96,0
00:32.8,74,77.70137787,96,0
00:32.8,74,77.70137787,96,0
00:32.8,74,77.63301849,96,0
00:32.8,74,77.63301849,96,0
00:32.8,74,77.63301849,96,0
00:32.9,74,77.60860443,96,0
00:32.9,74,77.60860443,96,0
00:32.9,74,77.60860443,96,0
00:32.9,74,77.68428802,96,0
00:32.9,74,77.68428802,96,0
00:32.9,74,77.68428802,96,0
00:32.9,74,77.68428802,96,0
00:32.9,74,77.95040894,96,0
00:32.9,74,77.95040894,96,0
00:32.9,74,77.95040894,96,0
00:32.9,74,78.49729156,96,0
00:32.9,74,78.49729156,96,0
00:32.9,74,78.49729156,96,0
00:32.9,74,79.39818573,96,0
00:32.9,74,79.39818573,96,0
00:32.9,74,79.39818573,96,0
00:32.9,74,79.39818573,96,0
00:32.9,74,80.64575958,96,0
00:32.9,74,80.64575958,96,0
00:32.9,74,80.64575958,96,0
00:32.9,74,82.14724731,96,0
00:32.9,74,82.14724731,96,0
00:32.9,74,82.14724731,96,0
00:32.9,74,83.71953583,96,0
00:32.9,74,83.71953583,96,0
00:33.0,74,83.71953583,96,0
00:33.0,74,83.71953583,96,0
00:33.0,74,85.14778137,96,0
00:33.0,74,85.14778137,96,0
00:33.0,74,85.14778137,96,0
00:33.0,74,86.2293396,96,0
00:33.0,74,86.2293396,96,0
00:33.0,74,86.2293396,96,0
00:33.0,74,86.84947205,96,0
00:33.0,74,86.84947205,96,0
00:33.0,74,86.84947205,96,0
00:33.0,74,86.84947205,96,0
00:00:33,74,86.99351501,96,0
00:33.0,74,86.99351501,96,0
00:33.0,74,86.99351501,96,0
00:33.0,74,86.71030426,96,0
00:33.0,74,86.71030426,96,0
00:33.0,74,86.71030426,96,0
00:33.0,74,86.10238647,96,0
00:33.0,74,86.10238647,96,0
00:33.0,74,86.10238647,96,0
00:33.0,74,86.10238647,96,0
00:33.0,74,85.28450775,96,0
00:33.0,74,85.28450775,96,0
00:33.0,74,85.28450775,96,0
00:33.1,74,84.35431671,96,0
00:33.1,74,84.35431671,96,0
00:33.1,74,84.35431671,96,0
00:33.1,74,83.38994598,96,0
00:33.1,74,83.38994598,96,0
00:33.1,74,83.38994598,96,0
00:33.1,74,83.38994598,96,0
00:33.1,74,82.44022369,96,0
00:33.1,74,82.44022369,96,0
00:33.1,74,82.44022369,96,0
00:33.1,74,81.55641937,96,0
00:33.1,74,81.55641937,96,0
00:33.1,74,81.55641937,96,0
00:33.1,74,80.76295471,96,0
00:33.1,74,80.76295471,96,0
00:33.1,74,80.76295471,96,0
00:33.1,74,80.76295471,96,0
00:33.1,74,80.09643555,96,0
00:33.1,74,80.09643555,96,0
00:33.1,74,80.09643555,96,0
00:33.1,72,79.58617401,96,0
00:33.1,72,79.58617401,96,0
00:33.1,72,79.58617401,96,0
00:33.1,72,79.25658417,96,0
00:33.1,72,79.25658417,96,0
00:33.2,72,79.25658417,96,0
00:33.2,72,79.25658417,96,0
00:33.2,72,79.1247406,96,0
00:33.2,72,79.1247406,96,0
00:33.2,72,79.1247406,96,0
00:33.2,72,79.18821716,96,0
00:33.2,72,79.18821716,96,0
00:33.2,72,79.18821716,96,0
00:33.2,72,79.42015839,96,0
00:33.2,72,79.42015839,96,0
00:33.2,72,79.42015839,96,0
00:33.2,72,79.42015839,96,0
00:33.2,72,79.77661133,96,0
00:33.2,72,79.77661133,96,0
00:33.2,72,79.77661133,96,0
00:33.2,72,80.18920898,96,0
00:33.2,72,80.18920898,96,0
00:33.2,72,80.18920898,96,0
00:33.2,72,80.58472443,96,0
00:33.2,72,80.58472443,96,0
00:33.2,72,80.58472443,96,0
00:33.2,72,80.58472443,96,0
00:33.2,72,80.90699768,96,0
00:33.2,72,80.90699768,96,0
00:33.2,72,80.90699768,96,0
00:33.3,72,81.1096344,96,0
00:33.3,72,81.1096344,96,0
00:33.3,72,81.1096344,96,0
00:33.3,72,81.17799377,96,0
00:33.3,72,81.17799377,96,0
00:33.3,72,81.17799377,96,0
00:33.3,72,81.17799377,96,0
00:33.3,72,81.1096344,96,0
00:33.3,72,81.1096344,96,0
00:33.3,72,81.1096344,96,0
00:33.3,72,80.92408752,96,0
00:33.3,72,80.92408752,96,0
00:33.3,72,80.92408752,96,0
00:33.3,72,80.64820099,96,0
00:33.3,72,80.64820099,96,0
00:33.3,72,80.64820099,96,0
00:33.3,72,80.64820099,96,0
00:33.3,72,80.31861115,96,0
00:33.3,72,80.31861115,96,0
00:33.3,72,80.31861115,96,0
00:33.3,72,79.96704102,96,0
00:33.3,72,79.96704102,96,0
00:33.3,72,79.96704102,96,0
00:33.3,72,79.6227951,96,0
00:33.3,72,79.6227951,96,0
00:33.4,72,79.6227951,96,0
00:33.4,72,79.6227951,96,0
00:33.4,72,79.30541229,96,0
00:33.4,72,79.30541229,96,0
00:33.4,72,79.30541229,96,0
00:33.4,72,79.01976013,96,0
00:33.4,72,79.01976013,96,0
00:33.4,72,79.01976013,96,0
00:33.4,72,78.76829529,96,0
00:33.4,72,78.76829529,96,0
00:33.4,72,78.76829529,96,0
00:33.4,72,78.76829529,96,0
00:33.4,72,78.5510025,96,0
00:33.4,72,78.5510025,96,0
00:33.4,72,78.5510025,96,0
00:33.4,72,78.36545563,96,0
00:33.4,72,78.36545563,96,0
00:33.4,72,78.36545563,96,0
00:33.4,72,78.21408081,96,0
00:33.4,72,78.21408081,96,0
00:33.4,72,78.21408081,96,0
00:33.4,72,78.21408081,96,0
00:33.4,72,78.10665894,96,0
00:33.4,72,78.10665894,96,0
00:33.4,72,78.10665894,96,0
00:33.5,72,78.03585815,96,0
00:33.5,72,78.03585815,96,0
00:33.5,72,78.03585815,96,0
00:33.5,72,77.98947144,96,0
00:33.5,72,77.98947144,96,0
00:33.5,72,77.98947144,96,0
00:33.5,72,77.98947144,96,0
00:33.5,72,77.96749878,96,0
00:33.5,72,77.96749878,96,0
00:33.5,72,77.96749878,96,0
00:33.5,72,77.97238159,96,0
00:33.5,72,77.97238159,96,0
00:33.5,72,77.97238159,96,0
00:33.5,72,77.99923706,96,0
00:33.5,72,77.99923706,96,0
00:33.5,72,77.99923706,96,0
00:33.5,72,77.99923706,96,0
00:33.5,72,78.04562378,96,0
00:33.5,72,78.04562378,96,0
00:33.5,72,78.04562378,96,0
00:33.5,72,78.10665894,96,0
00:33.5,72,78.10665894,96,0
00:33.5,72,78.10665894,96,0
00:33.5,72,78.17745972,96,0
00:33.5,72,78.17745972,96,0
00:33.6,72,78.17745972,96,0
00:33.6,72,78.17745972,96,0
00:33.6,72,78.24581909,96,0
00:33.6,72,78.24581909,96,0
00:33.6,72,78.24581909,96,0
00:33.6,72,78.29953766,96,0
00:33.6,72,78.29953766,96,0
00:33.6,72,78.29953766,96,0
00:33.6,72,78.33615875,96,0
00:33.6,72,78.33615875,96,0
00:33.6,72,78.33615875,96,0
00:33.6,72,78.33615875,96,0
00:33.6,72,78.35080719,96,0
00:33.6,72,78.35080719,96,0
00:33.6,72,78.35080719,96,0
00:33.6,72,78.34104156,96,0
00:33.6,72,78.34104156,96,0
00:33.6,72,78.34104156,96,0
00:33.6,72,78.30930328,96,0
00:33.6,72,78.30930328,96,0
00:33.6,72,78.30930328,96,0
00:33.6,72,78.30930328,96,0
00:33.6,72,78.26291656,96,0
00:33.6,72,78.26291656,96,0
00:33.6,72,78.26291656,96,0
00:33.7,72,78.209198,96,0
00:33.7,72,78.209198,96,0
00:33.7,72,78.209198,96,0
00:33.7,72,78.15792847,96,0
00:33.7,72,78.15792847,96,0
00:33.7,72,78.15792847,96,0
00:33.7,72,78.15792847,96,0
00:33.7,72,78.12619019,96,0
00:33.7,72,78.12619019,96,0
00:33.7,72,78.12619019,96,0
00:33.7,72,78.14572144,96,0
00:33.7,72,78.14572144,96,0
00:33.7,72,78.14572144,96,0
00:33.7,72,78.277565,96,0
00:33.7,72,78.277565,96,0
00:33.7,72,78.277565,96,0
00:33.7,72,78.277565,96,0
00:33.7,72,78.61447906,96,0
00:33.7,72,78.61447906,96,0
00:33.7,72,78.61447906,96,0
00:33.7,72,79.22972107,96,0
00:33.7,72,79.22972107,96,0
00:33.7,72,79.22972107,96,0
00:33.7,72,80.16967773,96,0
00:33.7,72,80.16967773,96,0
00:33.8,72,80.16967773,96,0
00:33.8,72,80.16967773,96,0
00:33.8,72,81.39040375,96,0
00:33.8,72,81.39040375,96,0
00:33.8,72,81.39040375,96,0
00:33.8,72,82.76737976,96,0
00:33.8,72,82.76737976,96,0
00:33.8,72,82.76737976,96,0
00:33.8,72,84.11505127,96,0
00:33.8,72,84.11505127,96,0
00:33.8,72,84.11505127,96,0
00:33.8,72,84.11505127,96,0
00:33.8,72,85.24299622,96,0
00:33.8,72,85.24299622,96,0
00:33.8,72,85.24299622,96,0
00:33.8,72,85.99984741,96,0
00:33.8,72,85.99984741,96,0
00:33.8,72,85.99984741,96,0
00:33.8,72,86.31967926,96,0
00:33.8,72,86.31967926,96,0
00:33.8,72,86.31967926,96,0
00:33.8,72,86.31967926,96,0
00:33.8,72,86.21469116,96,0
00:33.8,72,86.21469116,96,0
00:33.8,72,86.21469116,96,0
00:33.9,72,85.76547241,96,0
00:33.9,72,85.76547241,96,0
00:33.9,72,85.76547241,96,0
00:33.9,72,85.06477356,96,0
00:33.9,72,85.06477356,96,0
00:33.9,72,85.06477356,96,0
00:33.9,72,85.06477356,96,0
00:33.9,72,84.21759033,96,0
00:33.9,72,84.21759033,96,0
00:33.9,72,84.21759033,96,0
00:33.9,72,83.30449677,96,0
00:33.9,72,83.30449677,96,0
00:33.9,72,83.30449677,96,0
00:33.9,72,82.38651276,96,0
00:33.9,72,82.38651276,96,0
00:33.9,72,82.38651276,96,0
00:33.9,72,82.38651276,96,0
00:33.9,72,81.49538422,96,0
00:33.9,72,81.49538422,96,0
00:33.9,72,81.49538422,96,0
00:33.9,72,80.67261505,96,0
00:33.9,72,80.67261505,96,0
00:33.9,72,80.67261505,96,0
00:33.9,72,79.95239258,96,0
00:33.9,72,79.95239258,96,0
00:34.0,72,79.95239258,96,0
00:34.0,72,79.95239258,96,0
00:34.0,72,79.37377167,96,0
00:34.0,72,79.37377167,96,0
00:34.0,72,79.37377167,96,0
00:34.0,72,78.96360779,96,0
00:34.0,72,78.96360779,96,0
00:34.0,72,78.96360779,96,0
00:34.0,72,78.74143219,96,0
00:34.0,72,78.74143219,96,0
00:34.0,72,78.74143219,96,0
00:34.0,72,78.74143219,96,0
00:00:34,72,78.71213531,96,0
00:34.0,72,78.71213531,96,0
00:34.0,72,78.71213531,96,0
00:34.0,72,78.86106873,96,0
00:34.0,72,78.86106873,96,0
00:34.0,72,78.86106873,96,0
00:34.0,72,79.14915466,96,0
00:34.0,72,79.14915466,96,0
00:34.0,72,79.14915466,96,0
00:34.0,72,79.14915466,96,0
00:34.0,72,79.52513885,96,0
00:34.0,72,79.52513885,96,0
00:34.0,72,79.52513885,96,0
00:34.1,72,79.92797852,96,0
00:34.1,72,79.92797852,96,0
00:34.1,72,79.92797852,96,0
00:34.1,72,80.29663849,96,0
00:34.1,72,80.29663849,96,0
00:34.1,72,80.29663849,96,0
00:34.1,72,80.29663849,96,0
00:34.1,72,80.5725174,96,0
00:34.1,72,80.5725174,96,0
00:34.1,72,80.5725174,96,0
00:34.1,72,80.71656036,96,0
00:34.1,72,80.71656036,96,0
00:34.1,72,80.71656036,96,0
00:34.1,72,80.7287674,96,0
00:34.1,72,80.7287674,96,0
00:34.1,72,80.7287674,96,0
00:34.1,72,80.7287674,96,0
00:34.1,72,80.62134552,96,0
00:34.1,72,80.62134552,96,0
00:34.1,72,80.62134552,96,0
00:34.1,71,80.41382599,96,0
00:34.1,71,80.41382599,96,0
00:34.1,71,80.41382599,96,0
00:34.1,71,80.13549805,96,0
00:34.1,71,80.13549805,96,0
00:34.2,71,80.13549805,96,0
00:34.2,71,80.13549805,96,0
00:34.2,71,79.82055664,96,0
00:34.2,71,79.82055664,96,0
00:34.2,71,79.82055664,96,0
00:34.2,71,79.49095917,96,0
00:34.2,71,79.49095917,96,0
00:34.2,71,79.49095917,96,0
00:34.2,71,79.16624451,96,0
00:34.2,71,79.16624451,96,0
00:34.2,71,79.16624451,96,0
00:34.2,71,79.16624451,96,0
00:34.2,71,78.85862732,96,0
00:34.2,71,78.85862732,96,0
00:34.2,71,78.85862732,96,0
00:34.2,71,78.58518219,96,0
00:34.2,71,78.58518219,96,0
00:34.2,71,78.58518219,96,0
00:34.2,71,78.34836578,96,0
00:34.2,71,78.34836578,96,0
00:34.2,71,78.34836578,96,0
00:34.2,71,78.34836578,96,0
00:34.2,71,78.14816284,96,0
00:34.2,71,78.14816284,96,0
00:34.2,71,78.14816284,96,0
00:34.3,71,77.98947144,96,0
00:34.3,71,77.98947144,96,0
00:34.3,71,77.98947144,96,0
00:34.3,71,77.86495972,96,0
00:34.3,71,77.86495972,96,0
00:34.3,71,77.86495972,96,0
00:34.3,71,77.86495972,96,0
00:34.3,71,77.77706909,96,0
00:34.3,71,77.77706909,96,0
00:34.3,71,77.77706909,96,0
00:34.3,71,77.71846771,96,0
00:34.3,71,77.71846771,96,0
00:34.3,71,77.71846771,96,0
00:34.3,71,77.68672943,96,0
00:34.3,71,77.68672943,96,0
00:34.3,71,77.68672943,96,0
00:34.3,71,77.68672943,96,0
00:34.3,71,77.68184662,96,0
00:34.3,71,77.68184662,96,0
00:34.3,71,77.68184662,96,0
00:34.3,71,77.69893646,96,0
00:34.3,71,77.69893646,96,0
00:34.3,71,77.69893646,96,0
00:34.3,71,77.73555756,96,0
00:34.3,71,77.73555756,96,0
00:34.4,71,77.73555756,96,0
00:34.4,71,77.73555756,96,0
00:34.4,71,77.78683472,96,0
00:34.4,71,77.78683472,96,0
00:34.4,71,77.78683472,96,0
00:34.4,71,77.84786987,96,0
00:34.4,71,77.84786987,96,0
00:34.4,71,77.84786987,96,0
00:34.4,71,77.91134644,96,0
00:34.4,71,77.91134644,96,0
00:34.4,71,77.91134644,96,0
00:34.4,71,77.91134644,96,0
00:34.4,71,77.96505737,96,0
00:34.4,71,77.96505737,96,0
00:34.4,71,77.96505737,96,0
00:34.4,71,77.99923706,96,0
00:34.4,71,77.99923706,96,0
00:34.4,71,77.99923706,96,0
00:34.4,71,78.0138855,96,0
00:34.4,71,78.0138855,96,0
00:34.4,71,78.0138855,96,0
00:34.4,71,78.0138855,96,0
00:34.4,71,78.01144409,96,0
00:34.4,71,78.01144409,96,0
00:34.4,71,78.01144409,96,0
00:34.5,71,77.98947144,96,0
00:34.5,71,77.98947144,96,0
00:34.5,71,77.98947144,96,0
00:34.5,71,77.96017456,96,0
00:34.5,71,77.96017456,96,0
00:34.5,71,77.96017456,96,0
00:34.5,71,77.96017456,96,0
00:34.5,71,77.92843628,96,0
00:34.5,71,77.92843628,96,0
00:34.5,71,77.92843628,96,0
00:34.5,71,77.90402222,96,0
00:34.5,71,77.90402222,96,0
00:34.5,71,77.90402222,96,0
00:34.5,71,77.8991394,96,0
00:34.5,71,77.8991394,96,0
00:34.5,71,77.8991394,96,0
00:34.5,71,77.8991394,96,0
00:34.5,71,77.96749878,96,0
00:34.5,71,77.96749878,96,0
00:34.5,71,77.96749878,96,0
00:34.5,71,78.18722534,96,0
00:34.5,71,78.18722534,96,0
00:34.5,71,78.18722534,96,0
00:34.5,71,78.65842438,96,0
00:34.5,71,78.65842438,96,0
00:34.6,71,78.65842438,96,0
00:34.6,71,78.65842438,96,0
00:34.6,71,79.44457245,96,0
00:34.6,71,79.44457245,96,0
00:34.6,71,79.44457245,96,0
00:34.6,71,80.55298615,96,0
00:34.6,71,80.55298615,96,0
00:34.6,71,80.55298615,96,0
00:34.6,71,81.89578247,96,0
00:34.6,71,81.89578247,96,0
00:34.6,71,81.89578247,96,0
00:34.6,71,81.89578247,96,0
00:34.6,71,83.30205536,96,0
00:34.6,71,83.30205536,96,0
00:34.6,71,83.30205536,96,0
00:34.6,71,84.56916046,96,0
00:34.6,71,84.56916046,96,0
00:34.6,71,84.56916046,96,0
00:34.6,71,85.51399994,96,0
00:34.6,71,85.51399994,96,0
00:34.6,71,85.51399994,96,0
00:34.6,71,85.51399994,96,0
00:34.6,71,86.0340271,96,0
00:34.6,71,86.0340271,96,0
00:34.6,71,86.0340271,96,0
00:34.7,71,86.12191772,96,0
00:34.7,71,86.12191772,96,0
00:34.7,71,86.12191772,96,0
00:34.7,71,85.82894897,96,0
00:34.7,71,85.82894897,96,0
00:34.7,71,85.82894897,96,0
00:34.7,71,85.82894897,96,0
00:34.7,71,85.25032806,96,0
00:34.7,71,85.25032806,96,0
00:34.7,71,85.25032806,96,0
00:34.7,71,84.49347687,96,0
00:34.7,71,84.49347687,96,0
00:34.7,71,84.49347687,96,0
00:34.7,71,83.64629364,96,0
00:34.7,71,83.64629364,96,0
00:34.7,71,83.64629364,96,0
00:34.7,71,83.64629364,96,0
00:34.7,71,82.77714539,96,0
00:34.7,71,82.77714539,96,0
00:34.7,71,82.77714539,96,0
00:34.7,71,81.93484497,96,0
00:34.7,71,81.93484497,96,0
00:34.7,71,81.93484497,96,0
00:34.7,71,81.16334534,96,0
00:34.7,71,81.16334534,96,0
00:34.8,71,81.16334534,96,0
00:34.8,71,81.16334534,96,0
00:34.8,71,80.50415802,96,0
00:34.8,71,80.50415802,96,0
00:34.8,71,80.50415802,96,0
00:34.8,71,79.99389648,96,0
00:34.8,71,79.99389648,96,0
00:34.8,71,79.99389648,96,0
00:34.8,71,79.66429901,96,0
00:34.8,71,79.66429901,96,0
00:34.8,71,79.66429901,96,0
00:34.8,71,79.66429901,96,0
00:34.8,71,79.53246307,96,0
00:34.8,71,79.53246307,96,0
00:34.8,71,79.53246307,96,0
00:34.8,71,79.59593964,96,0
00:34.8,71,79.59593964,96,0
00:34.8,71,79.59593964,96,0
00:34.8,71,79.82299805,96,0
00:34.8,71,79.82299805,96,0
00:34.8,71,79.82299805,96,0
00:34.8,71,79.82299805,96,0
00:34.8,71,80.16235352,96,0
00:34.8,71,80.16235352,96,0
00:34.8,71,80.16235352,96,0
00:34.9,71,80.53833771,96,0
00:34.9,71,80.53833771,96,0
00:34.9,71,80.53833771,96,0
00:34.9,71,80.88746643,96,0
00:34.9,71,80.88746643,96,0
00:34.9,71,80.88746643,96,0
00:34.9,71,80.88746643,96,0
00:34.9,71,81.1486969,96,0
00:34.9,71,81.1486969,96,0
00:34.9,71,81.1486969,96,0
00:34.9,71,81.2927475,96,0
00:34.9,71,81.2927475,96,0
00:34.9,71,81.2927475,96,0
00:34.9,71,81.30495453,96,0
00:34.9,71,81.30495453,96,0
00:34.9,71,81.30495453,96,0
00:34.9,71,81.30495453,96,0
00:34.9,71,81.19752502,96,0
00:34.9,71,81.19752502,96,0
00:34.9,71,81.19752502,96,0
00:34.9,71,80.99488831,96,0
00:34.9,71,80.99488831,96,0
00:34.9,71,80.99488831,96,0
00:34.9,71,80.72388458,96,0
00:34.9,71,80.72388458,96,0
00:35.0,71,80.72388458,96,0
00:35.0,71,80.72388458,96,0
00:35.0,71,80.4162674,96,0
00:35.0,71,80.4162674,96,0
00:35.0,71,80.4162674,96,0
00:35.0,71,80.09155273,96,0
00:35.0,71,80.09155273,96,0
00:35.0,71,80.09155273,96,0
00:35.0,71,79.77172852,96,0
00:35.0,71,79.77172852,96,0
00:35.0,71,79.77172852,96,0
00:35.0,71,79.77172852,96,0
00:00:35,71,79.46898651,96,0
00:35.0,71,79.46898651,96,0
00:35.0,71,79.46898651,96,0
00:35.0,71,79.20530701,96,0
00:35.0,71,79.20530701,96,0
00:35.0,71,79.20530701,96,0
00:35.0,71,78.98069763,96,0
00:35.0,71,78.98069763,96,0
00:35.0,71,78.98069763,96,0
00:35.0,71,78.98069763,96,0
00:35.0,71,78.80247498,96,0
00:35.0,71,78.80247498,96,0
00:35.0,71,78.80247498,96,0
00:35.1,71,78.67063141,96,0
00:35.1,71,78.67063141,96,0
00:35.1,71,78.67063141,96,0
00:35.1,71,78.58029938,96,0
00:35.1,71,78.58029938,96,0
00:35.1,71,78.58029938,96,0
00:35.1,71,78.58029938,96,0
00:35.1,71,78.52414703,96,0
00:35.1,71,78.52414703,96,0
00:35.1,71,78.52414703,96,0
00:35.1,71,78.50217438,96,0
00:35.1,71,78.50217438,96,0
00:35.1,71,78.50217438,96,0
00:35.1,71,78.50217438,96,0
00:35.1,71,78.50217438,96,0
00:35.1,71,78.50217438,96,0
00:35.1,71,78.50217438,96,0
00:35.1,71,78.52414703,96,0
00:35.1,71,78.52414703,96,0
00:35.1,71,78.52414703,96,0
00:35.1,71,78.56320953,96,0
00:35.1,71,78.56320953,96,0
00:35.1,71,78.56320953,96,0
00:35.1,71,78.61447906,96,0
00:35.1,71,78.61447906,96,0
00:35.2,71,78.61447906,96,0
00:35.2,71,78.61447906,96,0
00:35.2,71,78.67063141,96,0
00:35.2,71,78.67063141,96,0
00:35.2,71,78.67063141,96,0
00:35.2,71,78.72678375,96,0
00:35.2,71,78.72678375,96,0
00:35.2,71,78.72678375,96,0
00:35.2,71,78.7731781,96,0
00:35.2,71,78.7731781,96,0
00:35.2,71,78.7731781,96,0
00:35.2,71,78.7731781,96,0
00:35.2,71,78.80979919,96,0
00:35.2,71,78.80979919,96,0
00:35.2,71,78.80979919,96,0
00:35.2,71,78.82688904,96,0
00:35.2,71,78.82688904,96,0
00:35.2,71,78.82688904,96,0
00:35.2,71,78.82688904,96,0
00:35.2,71,78.82688904,96,0
00:35.2,71,78.82688904,96,0
00:35.2,71,78.82688904,96,0
00:35.2,71,78.80735779,96,0
00:35.2,71,78.80735779,96,0
00:35.2,71,78.80735779,96,0
00:35.3,71,78.78538513,96,0
00:35.3,71,78.78538513,96,0
00:35.3,71,78.78538513,96,0
00:35.3,71,78.76585388,96,0
00:35.3,71,78.76585388,96,0
00:35.3,71,78.76585388,96,0
00:35.3,71,78.76585388,96,0
00:35.3,71,78.79026794,96,0
00:35.3,71,78.79026794,96,0
00:35.3,71,78.79026794,96,0
00:35.3,71,78.90745544,96,0
00:35.3,71,78.90745544,96,0
00:35.3,71,78.90745544,96,0
00:35.3,71,79.20774841,96,0
00:35.3,71,79.20774841,96,0
00:35.3,71,79.20774841,96,0
00:35.3,71,79.20774841,96,0
00:35.3,71,79.75952148,96,0
00:35.3,71,79.75952148,96,0
00:35.3,71,79.75952148,96,0
00:35.3,71,80.59937286,96,0
00:35.3,71,80.59937286,96,0
00:35.3,71,80.59937286,96,0
00:35.3,71,81.69802094,96,0
00:35.3,71,81.69802094,96,0
00:35.4,71,81.69802094,96,0
00:35.4,71,81.69802094,96,0
00:35.4,71,82.95292664,96,0
00:35.4,71,82.95292664,96,0
00:35.4,71,82.95292664,96,0
00:35.4,71,84.19805908,96,0
00:35.4,71,84.19805908,96,0
00:35.4,71,84.19805908,96,0
00:35.4,71,85.25521088,96,0
00:35.4,71,85.25521088,96,0
00:35.4,71,85.25521088,96,0
00:35.4,71,85.25521088,96,0
00:35.4,71,85.97787476,96,0
00:35.4,71,85.97787476,96,0
00:35.4,71,85.97787476,96,0
00:35.4,71,86.30503082,96,0
00:35.4,71,86.30503082,96,0
00:35.4,71,86.30503082,96,0
00:35.4,71,86.23666382,96,0
00:35.4,71,86.23666382,96,0
00:35.4,71,86.23666382,96,0
00:35.4,71,86.23666382,96,0
00:35.4,71,85.83383179,96,0
00:35.4,71,85.83383179,96,0
00:35.4,71,85.83383179,96,0
00:35.5,71,85.19172668,96,0
00:35.5,71,85.19172668,96,0
00:35.5,71,85.19172668,96,0
00:35.5,71,84.40314484,96,0
00:35.5,71,84.40314484,96,0
00:35.5,71,84.40314484,96,0
00:35.5,71,84.40314484,96,0
00:35.5,71,83.5510788,96,0
00:35.5,71,83.5510788,96,0
00:35.5,71,83.5510788,96,0
00:35.5,71,82.68924713,96,0
00:35.5,71,82.68924713,96,0
00:35.5,71,82.68924713,96,0
00:35.5,71,81.86160278,96,0
00:35.5,71,81.86160278,96,0
00:35.5,71,81.86160278,96,0
00:35.5,71,81.86160278,96,0
00:35.5,71,81.09498596,96,0
00:35.5,71,81.09498596,96,0
00:35.5,71,81.09498596,96,0
00:35.5,71,80.4162674,96,0
00:35.5,71,80.4162674,96,0
00:35.5,71,80.4162674,96,0
00:35.5,71,79.85717773,96,0
00:35.5,71,79.85717773,96,0
00:35.6,71,79.85717773,96,0
00:35.6,71,79.85717773,96,0
00:35.6,71,79.44701385,96,0
00:35.6,71,79.44701385,96,0
00:35.6,71,79.44701385,96,0
00:35.6,71,79.21507263,96,0
00:35.6,71,79.21507263,96,0
00:35.6,71,79.21507263,96,0
00:35.6,71,79.17601013,96,0
00:35.6,71,79.17601013,96,0
00:35.6,71,79.17601013,96,0
00:35.6,71,79.17601013,96,0
00:35.6,71,79.32006073,96,0
00:35.6,71,79.32006073,96,0
00:35.6,71,79.32006073,96,0
00:35.6,71,79.61791229,96,0
00:35.6,71,79.61791229,96,0
00:35.6,71,79.61791229,96,0
00:35.6,71,80.01342773,96,0
00:35.6,71,80.01342773,96,0
00:35.6,71,80.01342773,96,0
00:35.6,71,80.01342773,96,0
00:35.6,71,80.43091583,96,0
00:35.6,71,80.43091583,96,0
00:35.6,71,80.43091583,96,0
00:35.7,71,80.80201721,96,0
00:35.7,71,80.80201721,96,0
00:35.7,71,80.80201721,96,0
00:35.7,71,81.07545471,96,0
00:35.7,71,81.07545471,96,0
00:35.7,71,81.07545471,96,0
00:35.7,71,81.07545471,96,0
00:35.7,71,81.21705627,96,0
00:35.7,71,81.21705627,96,0
00:35.7,71,81.21705627,96,0
00:35.7,71,81.22193909,96,0
00:35.7,71,81.22193909,96,0
00:35.7,71,81.22193909,96,0
00:35.7,71,81.10475159,96,0
00:35.7,71,81.10475159,96,0
00:35.7,71,81.10475159,96,0
00:35.7,71,81.10475159,96,0
00:35.7,71,80.89479065,96,0
00:35.7,71,80.89479065,96,0
00:35.7,71,80.89479065,96,0
00:35.7,71,80.61890411,96,0
00:35.7,71,80.61890411,96,0
00:35.7,71,80.61890411,96,0
00:35.7,71,80.30640411,96,0
00:35.7,71,80.30640411,96,0
00:35.8,71,80.30640411,96,0
00:35.8,71,80.30640411,96,0
00:35.8,71,79.98901367,96,0
00:35.8,71,79.98901367,96,0
00:35.8,71,79.98901367,96,0
00:35.8,71,79.68627167,96,0
00:35.8,71,79.68627167,96,0
00:35.8,71,79.68627167,96,0
00:35.8,71,79.42015839,96,0
00:35.8,71,79.42015839,96,0
00:35.8,71,79.42015839,96,0
00:35.8,71,79.42015839,96,0
00:35.8,71,79.19554138,96,0
00:35.8,71,79.19554138,96,0
00:35.8,71,79.19554138,96,0
00:35.8,71,79.01487732,96,0
00:35.8,71,79.01487732,96,0
00:35.8,71,79.01487732,96,0
00:35.8,71,78.87083435,96,0
00:35.8,71,78.87083435,96,0
00:35.8,71,78.87083435,96,0
00:35.8,71,78.87083435,96,0
00:35.8,71,78.74875641,96,0
00:35.8,71,78.74875641,96,0
00:35.8,71,78.74875641,96,0
00:35.9,71,78.64133453,96,0
00:35.9,71,78.64133453,96,0
00:35.9,71,78.64133453,96,0
00:35.9,71,78.5485611,96,0
00:35.9,71,78.5485611,96,0
00:35.9,71,78.5485611,96,0
00:35.9,71,78.5485611,96,0
00:35.9,71,78.46311188,96,0
00:35.9,71,78.46311188,96,0
00:35.9,71,78.46311188,96,0
00:35.9,71,78.3923111,96,0
00:35.9,71,78.3923111,96,0
00:35.9,71,78.3923111,96,0
00:35.9,71,78.33371735,96,0
00:35.9,71,78.33371735,96,0
00:35.9,71,78.33371735,96,0
00:35.9,71,78.33371735,96,0
00:35.9,71,78.28244781,96,0
00:35.9,71,78.28244781,96,0
00:35.9,71,78.28244781,96,0
00:35.9,71,78.23605347,96,0
00:35.9,71,78.23605347,96,0
00:35.9,71,78.23605347,96,0
00:35.9,71,78.19699097,96,0
00:35.9,71,78.19699097,96,0
00:36.0,71,78.19699097,96,0
00:36.0,71,78.19699097,96,0
00:36.0,71,78.16769409,96,0
00:36.0,71,78.16769409,96,0
00:36.0,71,78.16769409,96,0
00:36.0,71,78.15304565,96,0
00:36.0,71,78.15304565,96,0
00:36.0,71,78.15304565,96,0
00:36.0,71,78.16769409,96,0
00:36.0,71,78.16769409,96,0
00:36.0,71,78.16769409,96,0
00:36.0,71,78.16769409,96,0
00:00:36,71,78.23117065,96,0
00:36.0,71,78.23117065,96,0
00:36.0,71,78.23117065,96,0
00:36.0,71,78.3947525,96,0
00:36.0,71,78.3947525,96,0
00:36.0,71,78.3947525,96,0
00:36.0,71,78.72434235,96,0
00:36.0,71,78.72434235,96,0
00:36.0,71,78.72434235,96,0
00:36.0,71,78.72434235,96,0
00:36.0,71,79.28832245,96,0
00:36.0,71,79.28832245,96,0
00:36.0,71,79.28832245,96,0
00:36.1,71,80.11108398,96,0
00:36.1,71,80.11108398,96,0
00:36.1,71,80.11108398,96,0
00:36.1,71,81.16090393,96,0
00:36.1,71,81.16090393,96,0
00:36.1,71,81.16090393,96,0
00:36.1,71,81.16090393,96,0
00:36.1,71,82.33768463,96,0
00:36.1,71,82.33768463,96,0
00:36.1,71,82.33768463,96,0
00:36.1,71,83.4729538,96,0
00:36.1,71,83.4729538,96,0
00:36.1,71,83.4729538,96,0
00:36.1,71,84.40802765,96,0
00:36.1,71,84.40802765,96,0
00:36.1,71,84.40802765,96,0
00:36.1,71,84.40802765,96,0
00:36.1,71,85.02326965,96,0
00:36.1,71,85.02326965,96,0
00:36.1,71,85.02326965,96,0
00:36.1,71,85.2625351,96,0
00:36.1,71,85.2625351,96,0
00:36.1,71,85.2625351,96,0
00:36.1,71,85.14778137,96,0
00:36.1,71,85.14778137,96,0
00:36.2,71,85.14778137,96,0
00:36.2,71,85.14778137,96,0
00:36.2,71,84.73761749,96,0
00:36.2,71,84.73761749,96,0
00:36.2,71,84.73761749,96,0
00:36.2,71,84.11260986,96,0
00:36.2,71,84.11260986,96,0
00:36.2,71,84.11260986,96,0
00:36.2,71,83.34844208,96,0
00:36.2,71,83.34844208,96,0
00:36.2,71,83.34844208,96,0
00:36.2,71,83.34844208,96,0
00:36.2,71,82.51102448,96,0
00:36.2,71,82.51102448,96,0
00:36.2,71,82.51102448,96,0
00:36.2,71,81.64919281,96,0
00:36.2,71,81.64919281,96,0
00:36.2,71,81.64919281,96,0
00:36.2,71,80.80934143,96,0
00:36.2,71,80.80934143,96,0
00:36.2,71,80.80934143,96,0
00:36.2,71,80.80934143,96,0
00:36.2,71,80.03051758,96,0
00:36.2,71,80.03051758,96,0
00:36.2,71,80.03051758,96,0
00:36.3,71,79.35668182,96,0
00:36.3,71,79.35668182,96,0
00:36.3,71,79.35668182,96,0
00:36.3,71,78.81712341,96,0
00:36.3,71,78.81712341,96,0
00:36.3,71,78.81712341,96,0
00:36.3,71,78.81712341,96,0
00:36.3,71,78.44358063,96,0
00:36.3,71,78.44358063,96,0
00:36.3,71,78.44358063,96,0
00:36.3,71,78.25315094,96,0
00:36.3,71,78.25315094,96,0
00:36.3,71,78.25315094,96,0
00:36.3,71,78.25315094,96,0
00:36.3,71,78.25315094,96,0
00:36.3,71,78.25315094,96,0
00:36.3,71,78.25315094,96,0
00:36.3,71,78.41672516,96,0
00:36.3,71,78.41672516,96,0
00:36.3,71,78.41672516,96,0
00:36.3,71,78.70969391,96,0
00:36.3,71,78.70969391,96,0
00:36.3,71,78.70969391,96,0
00:36.3,71,79.07591248,96,0
00:36.3,71,79.07591248,96,0
00:36.4,71,79.07591248,96,0
00:36.4,71,79.07591248,96,0
00:36.4,71,79.45189667,96,0
00:36.4,71,79.45189667,96,0
00:36.4,71,79.45189667,96,0
00:36.4,71,79.78149414,96,0
00:36.4,71,79.78149414,96,0
00:36.4,71,79.78149414,96,0
00:36.4,71,80.02319336,96,0
00:36.4,71,80.02319336,96,0
00:36.4,71,80.02319336,96,0
00:36.4,71,80.02319336,96,0
00:36.4,71,80.1574707,96,0
00:36.4,71,80.1574707,96,0
00:36.4,71,80.1574707,96,0
00:36.4,71,80.17944336,96,0
00:36.4,71,80.17944336,96,0
00:36.4,71,80.17944336,96,0
00:36.4,71,80.09643555,96,0
00:36.4,71,80.09643555,96,0
00:36.4,71,80.09643555,96,0
00:36.4,71,80.09643555,96,0
00:36.4,71,79.92553711,96,0
00:36.4,71,79.92553711,96,0
00:36.4,71,79.92553711,96,0
00:36.5,71,79.6984787,96,0
00:36.5,71,79.6984787,96,0
00:36.5,71,79.6984787,96,0
00:36.5,72,79.44701385,96,0
00:36.5,72,79.44701385,96,0
00:36.5,72,79.44701385,96,0
00:36.5,72,79.44701385,96,0
00:36.5,72,79.20042419,96,0
00:36.5,72,79.20042419,96,0
00:36.5,72,79.20042419,96,0
00:36.5,72,78.97825623,96,0
00:36.5,72,78.97825623,96,0
00:36.5,72,78.97825623,96,0
00:36.5,72,78.78538513,96,0
00:36.5,72,78.78538513,96,0
00:36.5,72,78.78538513,96,0
00:36.5,72,78.78538513,96,0
00:36.5,72,78.61692047,96,0
00:36.5,72,78.61692047,96,0
00:36.5,72,78.61692047,96,0
00:36.5,72,78.4728775,96,0
00:36.5,72,78.4728775,96,0
00:36.5,72,78.4728775,96,0
00:36.5,72,78.34592438,96,0
00:36.5,72,78.34592438,96,0
00:36.6,72,78.34592438,96,0
00:36.6,72,78.34592438,96,0
00:36.6,72,78.23117065,96,0
00:36.6,72,78.23117065,96,0
00:36.6,72,78.23117065,96,0
00:36.6,72,78.12374878,96,0
00:36.6,72,78.12374878,96,0
00:36.6,72,78.12374878,96,0
00:36.6,72,78.02609253,96,0
00:36.6,72,78.02609253,96,0
00:36.6,72,78.02609253,96,0
00:36.6,72,78.02609253,96,0
00:36.6,72,77.9357605,96,0
00:36.6,72,77.9357605,96,0
00:36.6,72,77.9357605,96,0
00:36.6,72,77.85031128,96,0
00:36.6,72,77.85031128,96,0
00:36.6,72,77.85031128,96,0
00:36.6,72,77.77462769,96,0
00:36.6,72,77.77462769,96,0
00:36.6,72,77.77462769,96,0
00:36.6,72,77.77462769,96,0
00:36.6,72,77.70870209,96,0
00:36.6,72,77.70870209,96,0
00:36.6,72,77.70870209,96,0
00:36.7,72,77.65499115,96,0
00:36.7,72,77.65499115,96,0
00:36.7,72,77.65499115,96,0
00:36.7,72,77.61592865,96,0
00:36.7,72,77.61592865,96,0
00:36.7,72,77.61592865,96,0
00:36.7,72,77.61592865,96,0
00:36.7,72,77.5963974,96,0
00:36.7,72,77.5963974,96,0
00:36.7,72,77.5963974,96,0
00:36.7,72,77.61837006,96,0
00:36.7,72,77.61837006,96,0
00:36.7,72,77.61837006,96,0
00:36.7,72,77.72335052,96,0
00:36.7,72,77.72335052,96,0
00:36.7,72,77.72335052,96,0
00:36.7,72,77.72335052,96,0
00:36.7,72,77.98214722,96,0
00:36.7,72,77.98214722,96,0
00:36.7,72,77.98214722,96,0
00:36.7,72,78.46311188,96,0
00:36.7,72,78.46311188,96,0
00:36.7,72,78.46311188,96,0
00:36.7,72,79.21263123,96,0
00:36.7,72,79.21263123,96,0
00:36.8,72,79.21263123,96,0
00:36.8,72,79.21263123,96,0
00:36.8,72,80.21118164,96,0
00:36.8,72,80.21118164,96,0
00:36.8,72,80.21118164,96,0
00:36.8,72,81.3708725,96,0
00:36.8,72,81.3708725,96,0
00:36.8,72,81.3708725,96,0
00:36.8,72,82.54276276,96,0
00:36.8,72,82.54276276,96,0
00:36.8,72,82.54276276,96,0
00:36.8,72,82.54276276,96,0
00:36.8,72,83.5510788,96,0
00:36.8,72,83.5510788,96,0
00:36.8,72,83.5510788,96,0
00:36.8,72,84.26154327,96,0
00:36.8,72,84.26154327,96,0
00:36.8,72,84.26154327,96,0
00:36.8,72,84.59113312,96,0
00:36.8,72,84.59113312,96,0
00:36.8,72,84.59113312,96,0
00:36.8,72,84.59113312,96,0
00:36.8,72,84.54230499,96,0
00:36.8,72,84.54230499,96,0
00:36.8,72,84.54230499,96,0
00:36.9,72,84.17852783,96,0
00:36.9,72,84.17852783,96,0
00:36.9,72,84.17852783,96,0
00:36.9,72,83.58281708,96,0
00:36.9,72,83.58281708,96,0
00:36.9,72,83.58281708,96,0
00:36.9,72,83.58281708,96,0
00:36.9,72,82.83818054,96,0
00:36.9,72,82.83818054,96,0
00:36.9,72,82.83818054,96,0
00:36.9,72,82.01541138,96,0
00:36.9,72,82.01541138,96,0
00:36.9,72,82.01541138,96,0
00:36.9,72,81.17311096,96,0
00:36.9,72,81.17311096,96,0
00:36.9,72,81.17311096,96,0
00:36.9,72,81.17311096,96,0
00:36.9,72,80.34790802,96,0
00:36.9,72,80.34790802,96,0
00:36.9,72,80.34790802,96,0
00:36.9,72,79.57640839,96,0
00:36.9,72,79.57640839,96,0
00:36.9,72,79.57640839,96,0
00:36.9,72,78.89524841,96,0
00:36.9,72,78.89524841,96,0
00:37.0,72,78.89524841,96,0
00:37.0,72,78.89524841,96,0
00:37.0,72,78.33615875,96,0
00:37.0,72,78.33615875,96,0
00:37.0,72,78.33615875,96,0
00:37.0,72,77.93331909,96,0
00:37.0,72,77.93331909,96,0
00:37.0,72,77.93331909,96,0
00:37.0,72,77.71114349,96,0
00:37.0,72,77.71114349,96,0
00:37.0,72,77.71114349,96,0
00:37.0,72,77.71114349,96,0
00:00:37,72,77.67940521,96,0
00:37.0,72,77.67940521,96,0
00:37.0,72,77.67940521,96,0
00:37.0,72,77.82345581,96,0
00:37.0,72,77.82345581,96,0
00:37.0,72,77.82345581,96,0
00:37.0,72,78.10177612,96,0
00:37.0,72,78.10177612,96,0
00:37.0,72,78.10177612,96,0
00:37.0,72,78.10177612,96,0
00:37.0,72,78.46311188,96,0
00:37.0,72,78.46311188,96,0
00:37.0,72,78.46311188,96,0
00:37.1,72,78.83177185,96,0
00:37.1,72,78.83177185,96,0
00:37.1,72,78.83177185,96,0
00:37.1,72,79.14915466,96,0
00:37.1,72,79.14915466,96,0
00:37.1,72,79.14915466,96,0
00:37.1,72,79.14915466,96,0
00:37.1,72,79.37133026,96,0
00:37.1,72,79.37133026,96,0
00:37.1,72,79.37133026,96,0
00:37.1,72,79.47386932,96,0
00:37.1,72,79.47386932,96,0
00:37.1,72,79.47386932,96,0
00:37.1,72,79.45922089,96,0
00:37.1,72,79.45922089,96,0
00:37.1,72,79.45922089,96,0
00:37.1,72,79.45922089,96,0
00:37.1,72,79.33470917,96,0
00:37.1,72,79.33470917,96,0
00:37.1,72,79.33470917,96,0
00:37.1,73,79.12229919,96,0
00:37.1,73,79.12229919,96,0
00:37.1,73,79.12229919,96,0
00:37.1,73,78.84642029,96,0
00:37.1,73,78.84642029,96,0
00:37.2,73,78.84642029,96,0
00:37.2,73,78.84642029,96,0
00:37.2,73,78.52658844,96,0
00:37.2,73,78.52658844,96,0
00:37.2,73,78.52658844,96,0
00:37.2,73,78.18478394,96,0
00:37.2,73,78.18478394,96,0
00:37.2,73,78.18478394,96,0
00:37.2,73,77.84786987,96,0
00:37.2,73,77.84786987,96,0
00:37.2,73,77.84786987,96,0
00:37.2,73,77.84786987,96,0
00:37.2,73,77.53292084,96,0
00:37.2,73,77.53292084,96,0
00:37.2,73,77.53292084,96,0
00:37.2,73,77.25460052,96,0
00:37.2,73,77.25460052,96,0
00:37.2,73,77.25460052,96,0
00:37.2,73,77.01533508,96,0
00:37.2,73,77.01533508,96,0
00:37.2,73,77.01533508,96,0
00:37.2,73,77.01533508,96,0
00:37.2,73,76.82246399,96,0
00:37.2,73,76.82246399,96,0
00:37.2,73,76.82246399,96,0
00:37.3,73,76.67108917,96,0
00:37.3,73,76.67108917,96,0
00:37.3,73,76.67108917,96,0
00:37.3,73,76.56855011,96,0
00:37.3,73,76.56855011,96,0
00:37.3,73,76.56855011,96,0
00:37.3,73,76.56855011,96,0
00:37.3,73,76.51972198,96,0
00:37.3,73,76.51972198,96,0
00:37.3,73,76.51972198,96,0
00:37.3,73,76.51728058,96,0
00:37.3,73,76.51728058,96,0
00:37.3,73,76.51728058,96,0
00:37.3,73,76.54657745,96,0
00:37.3,73,76.54657745,96,0
00:37.3,73,76.54657745,96,0
00:37.3,73,76.54657745,96,0
00:37.3,73,76.59784698,96,0
00:37.3,73,76.59784698,96,0
00:37.3,73,76.59784698,96,0
00:37.3,73,76.65644073,96,0
00:37.3,73,76.65644073,96,0
00:37.3,73,76.65644073,96,0
00:37.3,73,76.7223587,96,0
00:37.3,73,76.7223587,96,0
00:37.4,73,76.7223587,96,0
00:37.4,73,76.7223587,96,0
00:37.4,73,76.80537415,96,0
00:37.4,73,76.80537415,96,0
00:37.4,73,76.80537415,96,0
00:37.4,73,76.91523743,96,0
00:37.4,73,76.91523743,96,0
00:37.4,73,76.91523743,96,0
00:37.4,73,77.06660461,96,0
00:37.4,73,77.06660461,96,0
00:37.4,73,77.06660461,96,0
00:37.4,73,77.06660461,96,0
00:37.4,73,77.29854584,96,0
00:37.4,73,77.29854584,96,0
00:37.4,73,77.29854584,96,0
00:37.4,73,77.65987396,96,0
00:37.4,73,77.65987396,96,0
00:37.4,73,77.65987396,96,0
00:37.4,73,78.22628784,96,0
00:37.4,73,78.22628784,96,0
00:37.4,73,78.22628784,96,0
00:37.4,73,78.22628784,96,0
00:37.4,73,79.04905701,96,0
00:37.4,73,79.04905701,96,0
00:37.4,73,79.04905701,96,0
00:37.5,73,80.12817383,96,0
00:37.5,73,80.12817383,96,0
00:37.5,73,80.12817383,96,0
00:37.5,73,81.38552094,96,0
00:37.5,73,81.38552094,96,0
00:37.5,73,81.38552094,96,0
00:37.5,73,81.38552094,96,0
00:37.5,73,82.6770401,96,0
00:37.5,73,82.6770401,96,0
00:37.5,73,82.6770401,96,0
00:37.5,73,83.8147583,96,0
00:37.5,73,83.8147583,96,0
00:37.5,73,83.8147583,96,0
00:37.5,73,84.65216827,96,0
00:37.5,73,84.65216827,96,0
00:37.5,73,84.65216827,96,0
00:37.5,73,84.65216827,96,0
00:37.5,73,85.09407043,96,0
00:37.5,73,85.09407043,96,0
00:37.5,73,85.09407043,96,0
00:37.5,73,85.13313293,96,0
00:37.5,73,85.13313293,96,0
00:37.5,73,85.13313293,96,0
00:37.5,73,84.82063293,96,0
00:37.5,73,84.82063293,96,0
00:37.6,73,84.82063293,96,0
00:37.6,73,84.82063293,96,0
00:37.6,73,84.24200439,96,0
00:37.6,73,84.24200439,96,0
00:37.6,73,84.24200439,96,0
00:37.6,73,83.48516083,96,0
00:37.6,73,83.48516083,96,0
00:37.6,73,83.48516083,96,0
00:37.6,73,82.62577057,96,0
00:37.6,73,82.62577057,96,0
00:37.6,73,82.62577057,96,0
00:37.6,73,82.62577057,96,0
00:37.6,73,81.72975922,96,0
00:37.6,73,81.72975922,96,0
00:37.6,73,81.72975922,96,0
00:37.6,73,80.84840393,96,0
00:37.6,73,80.84840393,96,0
00:37.6,73,80.84840393,96,0
00:37.6,73,80.03540039,96,0
00:37.6,73,80.03540039,96,0
00:37.6,73,80.03540039,96,0
00:37.6,73,80.03540039,96,0
00:37.6,73,79.34203339,96,0
00:37.6,73,79.34203339,96,0
00:37.6,73,79.34203339,96,0
00:37.7,73,78.8122406,96,0
00:37.7,73,78.8122406,96,0
00:37.7,73,78.8122406,96,0
00:37.7,73,78.47531891,96,0
00:37.7,73,78.47531891,96,0
00:37.7,73,78.47531891,96,0
00:37.7,73,78.47531891,96,0
00:37.7,73,78.34836578,96,0
00:37.7,73,78.34836578,96,0
00:37.7,73,78.34836578,96,0
00:37.7,73,78.42160797,96,0
00:37.7,73,78.42160797,96,0
00:37.7,73,78.42160797,96,0
00:37.7,73,78.6657486,96,0
00:37.7,73,78.6657486,96,0
00:37.7,73,78.6657486,96,0
00:37.7,73,78.6657486,96,0
00:37.7,73,79.03196716,96,0
00:37.7,73,79.03196716,96,0
00:37.7,73,79.03196716,96,0
00:37.7,73,79.45922089,96,0
00:37.7,73,79.45922089,96,0
00:37.7,73,79.45922089,96,0
00:37.7,73,79.87915039,96,0
00:37.7,73,79.87915039,96,0
00:37.8,73,79.87915039,96,0
00:37.8,73,79.87915039,96,0
00:37.8,73,80.23071289,96,0
00:37.8,73,80.23071289,96,0
00:37.8,73,80.23071289,96,0
00:37.8,73,80.47241974,96,0
00:37.8,73,80.47241974,96,0
00:37.8,73,80.47241974,96,0
00:37.8,73,80.59204865,96,0
00:37.8,73,80.59204865,96,0
00:37.8,73,80.59204865,96,0
00:37.8,73,80.59204865,96,0
00:37.8,75,80.59449005,96,0
00:37.8,75,80.59449005,96,0
00:37.8,75,80.59449005,96,0
00:37.8,75,80.50171661,96,0
00:37.8,75,80.50171661,96,0
00:37.8,75,80.50171661,96,0
00:37.8,75,80.33570099,96,0
00:37.8,75,80.33570099,96,0
00:37.8,75,80.33570099,96,0
00:37.8,75,80.33570099,96,0
00:37.8,75,80.13061523,96,0
00:37.8,75,80.13061523,96,0
00:37.8,75,80.13061523,96,0
00:37.9,75,79.90112305,96,0
00:37.9,75,79.90112305,96,0
00:37.9,75,79.90112305,96,0
00:37.9,75,79.66429901,96,0
00:37.9,75,79.66429901,96,0
00:37.9,75,79.66429901,96,0
00:37.9,75,79.66429901,96,0
00:37.9,75,79.4274826,96,0
00:37.9,75,79.4274826,96,0
00:37.9,75,79.4274826,96,0
00:37.9,75,79.20042419,96,0
00:37.9,75,79.20042419,96,0
00:37.9,75,79.20042419,96,0
00:37.9,75,78.98558044,96,0
00:37.9,75,78.98558044,96,0
00:37.9,75,78.98558044,96,0
00:37.9,75,78.98558044,96,0
00:37.9,75,78.79026794,96,0
00:37.9,75,78.79026794,96,0
00:37.9,75,78.79026794,96,0
00:37.9,75,78.61936188,96,0
00:37.9,75,78.61936188,96,0
00:37.9,75,78.61936188,96,0
00:37.9,75,78.4728775,96,0
00:37.9,75,78.4728775,96,0
00:38.0,75,78.4728775,96,0
00:38.0,75,78.4728775,96,0
00:38.0,75,78.35813141,96,0
00:38.0,75,78.35813141,96,0
00:38.0,75,78.35813141,96,0
00:38.0,75,78.2751236,96,0
00:38.0,75,78.2751236,96,0
00:38.0,75,78.2751236,96,0
00:38.0,75,78.22628784,96,0
00:38.0,75,78.22628784,96,0
00:38.0,75,78.22628784,96,0
00:38.0,75,78.22628784,96,0
00:00:38,75,78.209198,96,0
00:38.0,75,78.209198,96,0
00:38.0,75,78.209198,96,0
00:38.0,75,78.22384644,96,0
00:38.0,75,78.22384644,96,0
00:38.0,75,78.22384644,96,0
00:38.0,75,78.2751236,96,0
00:38.0,75,78.2751236,96,0
00:38.0,75,78.2751236,96,0
00:38.0,75,78.2751236,96,0
00:38.0,75,78.38742828,96,0
00:38.0,75,78.38742828,96,0
00:38.0,75,78.38742828,96,0
00:38.1,75,78.59494781,96,0
00:38.1,75,78.59494781,96,0
00:38.1,75,78.59494781,96,0
00:38.1,75,78.96360779,96,0
00:38.1,75,78.96360779,96,0
00:38.1,75,78.96360779,96,0
00:38.1,75,78.96360779,96,0
00:38.1,75,79.53978729,96,0
00:38.1,75,79.53978729,96,0
00:38.1,75,79.53978729,96,0
00:38.1,75,80.33325958,96,0
00:38.1,75,80.33325958,96,0
00:38.1,75,80.33325958,96,0
00:38.1,75,81.2951889,96,0
00:38.1,75,81.2951889,96,0
00:38.1,75,81.2951889,96,0
00:38.1,75,81.2951889,96,0
00:38.1,75,82.31571198,96,0
00:38.1,75,82.31571198,96,0
00:38.1,75,82.31571198,96,0
00:38.1,75,83.25322723,96,0
00:38.1,75,83.25322723,96,0
00:38.1,75,83.25322723,96,0
00:38.1,75,83.9710083,96,0
00:38.1,75,83.9710083,96,0
00:38.2,75,83.9710083,96,0
00:38.2,75,83.9710083,96,0
00:38.2,75,84.3884964,96,0
00:38.2,75,84.3884964,96,0
00:38.2,75,84.3884964,96,0
00:38.2,75,84.47882843,96,0
00:38.2,75,84.47882843,96,0
00:38.2,75,84.47882843,96,0
00:38.2,75,84.26886749,96,0
00:38.2,75,84.26886749,96,0
00:38.2,75,84.26886749,96,0
00:38.2,75,84.26886749,96,0
00:38.2,75,83.80987549,96,0
00:38.2,75,83.80987549,96,0
00:38.2,75,83.80987549,96,0
00:38.2,75,83.16777039,96,0
00:38.2,75,83.16777039,96,0
00:38.2,75,83.16777039,96,0
00:38.2,75,82.40604401,96,0
00:38.2,75,82.40604401,96,0
00:38.2,75,82.40604401,96,0
00:38.2,75,82.40604401,96,0
00:38.2,75,81.58083344,96,0
00:38.2,75,81.58083344,96,0
00:38.2,75,81.58083344,96,0
00:38.3,75,80.74829865,96,0
00:38.3,75,80.74829865,96,0
00:38.3,75,80.74829865,96,0
00:38.3,75,79.96459961,96,0
00:38.3,75,79.96459961,96,0
00:38.3,75,79.96459961,96,0
00:38.3,75,79.96459961,96,0
00:38.3,75,79.28343964,96,0
00:38.3,75,79.28343964,96,0
00:38.3,75,79.28343964,96,0
00:38.3,75,78.74143219,96,0
00:38.3,75,78.74143219,96,0
00:38.3,75,78.74143219,96,0
00:38.3,75,78.37277985,96,0
00:38.3,75,78.37277985,96,0
00:38.3,75,78.37277985,96,0
00:38.3,75,78.37277985,96,0
00:38.3,75,78.19454956,96,0
00:38.3,75,78.19454956,96,0
00:38.3,75,78.19454956,96,0
00:38.3,75,78.20431519,96,0
00:38.3,75,78.20431519,96,0
00:38.3,75,78.20431519,96,0
00:38.3,75,78.38986969,96,0
00:38.3,75,78.38986969,96,0
00:38.4,75,78.38986969,96,0
00:38.4,75,78.38986969,96,0
00:38.4,75,78.71213531,96,0
00:38.4,75,78.71213531,96,0
00:38.4,75,78.71213531,96,0
00:38.4,75,79.11253357,96,0
00:38.4,75,79.11253357,96,0
00:38.4,75,79.11253357,96,0
00:38.4,75,79.51781464,96,0
00:38.4,75,79.51781464,96,0
00:38.4,75,79.51781464,96,0
00:38.4,75,79.51781464,96,0
00:38.4,75,79.86694336,96,0
00:38.4,75,79.86694336,96,0
00:38.4,75,79.86694336,96,0
00:38.4,75,80.11108398,96,0
00:38.4,75,80.11108398,96,0
00:38.4,75,80.11108398,96,0
00:38.4,75,80.22338867,96,0
00:38.4,75,80.22338867,96,0
00:38.4,75,80.22338867,96,0
00:38.4,75,80.22338867,96,0
00:38.4,75,80.20141602,96,0
00:38.4,75,80.20141602,96,0
00:38.4,75,80.20141602,96,0
00:38.5,75,80.06713867,96,0
00:38.5,75,80.06713867,96,0
00:38.5,75,80.06713867,96,0
00:38.5,78,79.84985352,96,0
00:38.5,78,79.84985352,96,0
00:38.5,78,79.84985352,96,0
00:38.5,78,79.84985352,96,0
00:38.5,78,79.57640839,96,0
00:38.5,78,79.57640839,96,0
00:38.5,78,79.57640839,96,0
00:38.5,78,79.27611542,96,0
00:38.5,78,79.27611542,96,0
00:38.5,78,79.27611542,96,0
00:38.5,78,78.97581482,96,0
00:38.5,78,78.97581482,96,0
00:38.5,78,78.97581482,96,0
00:38.5,78,78.97581482,96,0
00:38.5,78,78.69016266,96,0
00:38.5,78,78.69016266,96,0
00:38.5,78,78.69016266,96,0
00:38.5,78,78.43625641,96,0
00:38.5,78,78.43625641,96,0
00:38.5,78,78.43625641,96,0
00:38.5,78,78.21652222,96,0
00:38.5,78,78.21652222,96,0
00:38.6,78,78.21652222,96,0
00:38.6,78,78.21652222,96,0
00:38.6,78,78.03341675,96,0
00:38.6,78,78.03341675,96,0
00:38.6,78,78.03341675,96,0
00:38.6,78,77.88693237,96,0
00:38.6,78,77.88693237,96,0
00:38.6,78,77.88693237,96,0
00:38.6,78,77.77706909,96,0
00:38.6,78,77.77706909,96,0
00:38.6,78,77.77706909,96,0
00:38.6,78,77.77706909,96,0
00:38.6,78,77.69649506,96,0
00:38.6,78,77.69649506,96,0
00:38.6,78,77.69649506,96,0
00:38.6,78,77.64766693,96,0
00:38.6,78,77.64766693,96,0
00:38.6,78,77.64766693,96,0
00:38.6,78,77.6354599,96,0
00:38.6,78,77.6354599,96,0
00:38.6,78,77.6354599,96,0
00:38.6,78,77.6354599,96,0
00:38.6,78,77.67696381,96,0
00:38.6,78,77.67696381,96,0
00:38.6,78,77.67696381,96,0
00:38.7,78,77.82345581,96,0
00:38.7,78,77.82345581,96,0
00:38.7,78,77.82345581,96,0
00:38.7,78,78.15304565,96,0
00:38.7,78,78.15304565,96,0
00:38.7,78,78.15304565,96,0
00:38.7,78,78.15304565,96,0
00:38.7,78,78.746315,96,0
00:38.7,78,78.746315,96,0
00:38.7,78,78.746315,96,0
00:38.7,78,79.64720917,96,0
00:38.7,78,79.64720917,96,0
00:38.7,78,79.64720917,96,0
00:38.7,78,80.81666565,96,0
00:38.7,78,80.81666565,96,0
00:38.7,78,80.81666565,96,0
00:38.7,78,80.81666565,96,0
00:38.7,78,82.14968872,96,0
00:38.7,78,82.14968872,96,0
00:38.7,78,82.14968872,96,0
00:38.7,78,83.45586395,96,0
00:38.7,78,83.45586395,96,0
00:38.7,78,83.45586395,96,0
00:38.7,78,84.5447464,96,0
00:38.7,78,84.5447464,96,0
00:38.8,78,84.5447464,96,0
00:38.8,78,84.5447464,96,0
00:38.8,78,85.26985931,96,0
00:38.8,78,85.26985931,96,0
00:38.8,78,85.26985931,96,0
00:38.8,78,85.5750351,96,0
00:38.8,78,85.5750351,96,0
00:38.8,78,85.5750351,96,0
00:38.8,78,85.48470306,96,0
00:38.8,78,85.48470306,96,0
00:38.8,78,85.48470306,96,0
00:38.8,78,85.48470306,96,0
00:38.8,78,85.0818634,96,0
00:38.8,78,85.0818634,96,0
00:38.8,78,85.0818634,96,0
00:38.8,78,84.47638702,96,0
00:38.8,78,84.47638702,96,0
00:38.8,78,84.47638702,96,0
00:38.8,78,83.76104736,96,0
00:38.8,78,83.76104736,96,0
00:38.8,78,83.76104736,96,0
00:38.8,78,83.76104736,96,0
00:38.8,78,83.00419617,96,0
00:38.8,78,83.00419617,96,0
00:38.8,78,83.00419617,96,0
00:38.9,78,82.24490356,96,0
00:38.9,78,82.24490356,96,0
00:38.9,78,82.24490356,96,0
00:38.9,78,81.50759125,96,0
00:38.9,78,81.50759125,96,0
00:38.9,78,81.50759125,96,0
00:38.9,78,81.50759125,96,0
00:38.9,78,80.81666565,96,0
00:38.9,78,80.81666565,96,0
00:38.9,78,80.81666565,96,0
00:38.9,78,80.20141602,96,0
00:38.9,78,80.20141602,96,0
00:38.9,78,80.20141602,96,0
00:38.9,78,79.71068573,96,0
00:38.9,78,79.71068573,96,0
00:38.9,78,79.71068573,96,0
00:38.9,78,79.71068573,96,0
00:38.9,78,79.38109589,96,0
00:38.9,78,79.38109589,96,0
00:38.9,78,79.38109589,96,0
00:38.9,78,79.2419281,96,0
00:38.9,78,79.2419281,96,0
00:38.9,78,79.2419281,96,0
00:38.9,78,79.29320526,96,0
00:38.9,78,79.29320526,96,0
00:39.0,78,79.29320526,96,0
00:39.0,78,79.29320526,96,0
00:39.0,78,79.51049042,96,0
00:39.0,78,79.51049042,96,0
00:39.0,78,79.51049042,96,0
00:39.0,78,79.84008789,96,0
00:39.0,78,79.84008789,96,0
00:39.0,78,79.84008789,96,0
00:39.0,78,80.21118164,96,0
00:39.0,78,80.21118164,96,0
00:39.0,78,80.21118164,96,0
00:39.0,78,80.21118164,96,0
00:00:39,78,80.55542755,96,0
00:39.0,78,80.55542755,96,0
00:39.0,78,80.55542755,96,0
00:39.0,78,80.80690002,96,0
00:39.0,78,80.80690002,96,0
00:39.0,78,80.80690002,96,0
00:39.0,78,80.92652893,96,0
00:39.0,78,80.92652893,96,0
00:39.0,78,80.92652893,96,0
00:39.0,78,80.92652893,96,0
00:39.0,78,80.90455627,96,0
00:39.0,78,80.90455627,96,0
00:39.0,78,80.90455627,96,0
00:39.1,78,80.76295471,96,0
00:39.1,78,80.76295471,96,0
00:39.1,78,80.76295471,96,0
00:39.1,78,80.52857208,96,0
00:39.1,78,80.52857208,96,0
00:39.1,78,80.52857208,96,0
00:39.1,78,80.52857208,96,0
00:39.1,78,80.24536133,96,0
00:39.1,78,80.24536133,96,0
00:39.1,78,80.24536133,96,0
00:39.1,78,79.94750977,96,0
00:39.1,78,79.94750977,96,0
00:39.1,78,79.94750977,96,0
00:39.1,78,79.65697479,96,0
00:39.1,78,79.65697479,96,0
00:39.1,78,79.65697479,96,0
00:39.1,78,79.65697479,96,0
00:39.1,78,79.37865448,96,0
00:39.1,78,79.37865448,96,0
00:39.1,78,79.37865448,96,0
00:39.1,80,79.12229919,96,0
00:39.1,80,79.12229919,96,0
00:39.1,80,79.12229919,96,0
00:39.1,80,78.88792419,96,0
00:39.1,80,78.88792419,96,0
00:39.2,80,78.88792419,96,0
00:39.2,80,78.88792419,96,0
00:39.2,80,78.67795563,96,0
00:39.2,80,78.67795563,96,0
00:39.2,80,78.67795563,96,0
00:39.2,80,78.48508453,96,0
00:39.2,80,78.48508453,96,0
00:39.2,80,78.48508453,96,0
00:39.2,80,78.32639313,96,0
00:39.2,80,78.32639313,96,0
00:39.2,80,78.32639313,96,0
00:39.2,80,78.32639313,96,0
00:39.2,80,78.19943237,96,0
00:39.2,80,78.19943237,96,0
00:39.2,80,78.19943237,96,0
00:39.2,80,78.11154175,96,0
00:39.2,80,78.11154175,96,0
00:39.2,80,78.11154175,96,0
00:39.2,80,78.06271362,96,0
00:39.2,80,78.06271362,96,0
00:39.2,80,78.06271362,96,0
00:39.2,80,78.06271362,96,0
00:39.2,80,78.06271362,96,0
00:39.2,80,78.06271362,96,0
00:39.2,80,78.06271362,96,0
00:39.3,80,78.11154175,96,0
00:39.3,80,78.11154175,96,0
00:39.3,80,78.11154175,96,0
00:39.3,80,78.23361206,96,0
00:39.3,80,78.23361206,96,0
00:39.3,80,78.23361206,96,0
00:39.3,80,78.23361206,96,0
00:39.3,80,78.48264313,96,0
00:39.3,80,78.48264313,96,0
00:39.3,80,78.48264313,96,0
00:39.3,80,78.93675232,96,0
00:39.3,80,78.93675232,96,0
00:39.3,80,78.93675232,96,0
00:39.3,80,79.65209198,96,0
00:39.3,80,79.65209198,96,0
00:39.3,80,79.65209198,96,0
00:39.3,80,79.65209198,96,0
00:39.3,80,80.62622833,96,0
00:39.3,80,80.62622833,96,0
00:39.3,80,80.62622833,96,0
00:39.3,80,81.78103638,96,0
00:39.3,80,81.78103638,96,0
00:39.3,80,81.78103638,96,0
00:39.3,80,82.97245789,96,0
00:39.3,80,82.97245789,96,0
00:39.4,80,82.97245789,96,0
00:39.4,80,82.97245789,96,0
00:39.4,80,84.01251221,96,0
00:39.4,80,84.01251221,96,0
00:39.4,80,84.01251221,96,0
00:39.4,80,84.74250031,96,0
00:39.4,80,84.74250031,96,0
00:39.4,80,84.74250031,96,0
00:39.4,80,85.079422,96,0
00:39.4,80,85.079422,96,0
00:39.4,80,85.079422,96,0
00:39.4,80,85.079422,96,0
00:39.4,80,85.03303528,96,0
00:39.4,80,85.03303528,96,0
00:39.4,80,85.03303528,96,0
00:39.4,80,84.66925812,96,0
00:39.4,80,84.66925812,96,0
00:39.4,80,84.66925812,96,0
00:39.4,80,84.07843018,96,0
00:39.4,80,84.07843018,96,0
00:39.4,80,84.07843018,96,0
00:39.4,80,84.07843018,96,0
00:39.4,80,83.36309052,96,0
00:39.4,80,83.36309052,96,0
00:39.4,80,83.36309052,96,0
00:39.5,80,82.59647369,96,0
00:39.5,80,82.59647369,96,0
00:39.5,80,82.59647369,96,0
00:39.5,83,81.8298645,96,0
00:39.5,83,81.8298645,96,0
00:39.5,83,81.8298645,96,0
00:39.5,83,81.8298645,96,0
00:39.5,83,81.08766174,96,0
00:39.5,83,81.08766174,96,0
00:39.5,83,81.08766174,96,0
00:39.5,83,80.40161896,96,0
00:39.5,83,80.40161896,96,0
00:39.5,83,80.40161896,96,0
00:39.5,83,79.79614258,96,0
00:39.5,83,79.79614258,96,0
00:39.5,83,79.79614258,96,0
00:39.5,83,79.79614258,96,0
00:39.5,83,79.30052948,96,0
00:39.5,83,79.30052948,96,0
00:39.5,83,79.30052948,96,0
00:39.5,83,78.94163513,96,0
00:39.5,83,78.94163513,96,0
00:39.5,83,78.94163513,96,0
00:39.5,83,78.746315,96,0
00:39.5,83,78.746315,96,0
00:39.6,83,78.746315,96,0
00:39.6,83,78.746315,96,0
00:39.6,83,78.72922516,96,0
00:39.6,83,78.72922516,96,0
00:39.6,83,78.72922516,96,0
00:39.6,83,78.87327576,96,0
00:39.6,83,78.87327576,96,0
00:39.6,83,78.87327576,96,0
00:39.6,83,79.13938904,96,0
00:39.6,83,79.13938904,96,0
00:39.6,83,79.13938904,96,0
00:39.6,83,79.13938904,96,0
00:39.6,83,79.47631073,96,0
00:39.6,83,79.47631073,96,0
00:39.6,83,79.47631073,96,0
00:39.6,83,79.82055664,96,0
00:39.6,83,79.82055664,96,0
00:39.6,83,79.82055664,96,0
00:39.6,83,80.10864258,96,0
00:39.6,83,80.10864258,96,0
00:39.6,83,80.10864258,96,0
00:39.6,83,80.10864258,96,0
00:39.6,83,80.30396271,96,0
00:39.6,83,80.30396271,96,0
00:39.6,83,80.30396271,96,0
00:39.7,83,80.3796463,96,0
00:39.7,83,80.3796463,96,0
00:39.7,83,80.3796463,96,0
00:39.7,83,80.3381424,96,0
00:39.7,83,80.3381424,96,0
00:39.7,83,80.3381424,96,0
00:39.7,83,80.3381424,96,0
00:39.7,83,80.1965332,96,0
00:39.7,83,80.1965332,96,0
00:39.7,83,80.1965332,96,0
00:39.7,83,79.97436523,96,0
00:39.7,83,79.97436523,96,0
00:39.7,83,79.97436523,96,0
00:39.7,83,79.7009201,96,0
00:39.7,83,79.7009201,96,0
00:39.7,83,79.7009201,96,0
00:39.7,83,79.7009201,96,0
00:39.7,83,79.40550995,96,0
00:39.7,83,79.40550995,96,0
00:39.7,83,79.40550995,96,0
00:39.7,83,79.11009216,96,0
00:39.7,83,79.11009216,96,0
00:39.7,83,79.11009216,96,0
00:39.7,83,78.82933044,96,0
00:39.7,83,78.82933044,96,0
00:39.8,83,78.82933044,96,0
00:39.8,83,78.82933044,96,0
00:39.8,83,78.58274078,96,0
00:39.8,83,78.58274078,96,0
00:39.8,83,78.58274078,96,0
00:39.8,83,78.38010406,96,0
00:39.8,83,78.38010406,96,0
00:39.8,83,78.38010406,96,0
00:39.8,83,78.22384644,96,0
00:39.8,83,78.22384644,96,0
00:39.8,83,78.22384644,96,0
00:39.8,83,78.22384644,96,0
00:39.8,83,78.10910034,96,0
00:39.8,83,78.10910034,96,0
00:39.8,83,78.10910034,96,0
00:39.8,83,78.03341675,96,0
00:39.8,83,78.03341675,96,0
00:39.8,83,78.03341675,96,0
00:39.8,83,77.99191284,96,0
00:39.8,83,77.99191284,96,0
00:39.8,83,77.99191284,96,0
00:39.8,83,77.99191284,96,0
00:39.8,83,77.96994019,96,0
00:39.8,83,77.96994019,96,0
00:39.8,83,77.96994019,96,0
00:39.9,83,77.95773315,96,0
00:39.9,83,77.95773315,96,0
00:39.9,83,77.95773315,96,0
00:39.9,83,77.95529175,96,0
00:39.9,83,77.95529175,96,0
00:39.9,83,77.95529175,96,0
00:39.9,83,77.95529175,96,0
00:39.9,83,77.95773315,96,0
00:39.9,83,77.95773315,96,0
00:39.9,83,77.95773315,96,0
00:39.9,83,77.96261597,96,0
00:39.9,83,77.96261597,96,0
00:39.9,83,77.96261597,96,0
00:39.9,83,77.97970581,96,0
00:39.9,83,77.97970581,96,0
00:39.9,83,77.97970581,96,0
00:39.9,83,77.97970581,96,0
00:39.9,83,78.00900269,96,0
00:39.9,83,78.00900269,96,0
00:39.9,83,78.00900269,96,0
00:39.9,83,78.04806519,96,0
00:39.9,83,78.04806519,96,0
00:39.9,83,78.04806519,96,0
00:39.9,83,78.08956909,96,0
00:39.9,83,78.08956909,96,0
00:40.0,83,78.08956909,96,0
00:40.0,83,78.08956909,96,0
00:40.0,83,78.12863159,96,0
00:40.0,83,78.12863159,96,0
00:40.0,83,78.12863159,96,0
00:40.0,83,78.1725769,96,0
00:40.0,83,78.1725769,96,0
00:40.0,83,78.1725769,96,0
00:40.0,83,78.23605347,96,0
00:40.0,83,78.23605347,96,0
00:40.0,83,78.23605347,96,0
00:40.0,83,78.23605347,96,0
00:00:40,83,78.36301422,96,0
00:40.0,83,78.36301422,96,0
00:40.0,83,78.36301422,96,0
00:40.0,83,78.62180328,96,0
00:40.0,83,78.62180328,96,0
00:40.0,83,78.62180328,96,0
00:40.0,83,79.10765076,96,0
00:40.0,83,79.10765076,96,0
00:40.0,83,79.10765076,96,0
00:40.0,83,79.10765076,96,0
00:40.0,83,79.87182617,96,0
00:40.0,83,79.87182617,96,0
00:40.0,83,79.87182617,96,0
00:40.1,83,80.90943909,96,0
00:40.1,83,80.90943909,96,0
00:40.1,83,80.90943909,96,0
00:40.1,83,82.12527466,96,0
00:40.1,83,82.12527466,96,0
00:40.1,83,82.12527466,96,0
00:40.1,83,82.12527466,96,0
00:40.1,83,83.36064911,96,0
00:40.1,83,83.36064911,96,0
00:40.1,83,83.36064911,96,0
00:40.1,83,84.41535187,96,0
00:40.1,83,84.41535187,96,0
00:40.1,83,84.41535187,96,0
00:40.1,83,85.12825012,96,0
00:40.1,83,85.12825012,96,0
00:40.1,83,85.12825012,96,0
00:40.1,83,85.12825012,96,0
00:40.1,83,85.43099213,96,0
00:40.1,83,85.43099213,96,0
00:40.1,83,85.43099213,96,0
00:40.1,83,85.32601166,96,0
00:40.1,83,85.32601166,96,0
00:40.1,83,85.32601166,96,0
00:40.1,83,84.89631653,96,0
00:40.1,83,84.89631653,96,0
00:40.2,83,84.89631653,96,0
00:40.2,83,84.89631653,96,0
00:40.2,83,84.24932861,96,0
00:40.2,83,84.24932861,96,0
00:40.2,83,84.24932861,96,0
00:40.2,83,83.49492645,96,0
00:40.2,83,83.49492645,96,0
00:40.2,83,83.49492645,96,0
00:40.2,83,82.70633698,96,0
00:40.2,83,82.70633698,96,0
00:40.2,83,82.70633698,96,0
00:40.2,83,82.70633698,96,0
00:40.2,83,81.93972778,96,0
00:40.2,83,81.93972778,96,0
00:40.2,83,81.93972778,96,0
00:40.2,83,81.22193909,96,0
00:40.2,83,81.22193909,96,0
00:40.2,83,81.22193909,96,0
00:40.2,83,80.56763458,96,0
00:40.2,83,80.56763458,96,0
00:40.2,83,80.56763458,96,0
00:40.2,83,80.56763458,96,0
00:40.2,83,80.0012207,96,0
00:40.2,83,80.0012207,96,0
00:40.2,83,80.0012207,96,0
00:40.3,83,79.54711151,96,0
00:40.3,83,79.54711151,96,0
00:40.3,83,79.54711151,96,0
00:40.3,83,79.22483826,96,0
00:40.3,83,79.22483826,96,0
00:40.3,83,79.22483826,96,0
00:40.3,83,79.22483826,96,0
00:40.3,83,79.05638123,96,0
00:40.3,83,79.05638123,96,0
00:40.3,83,79.05638123,96,0
00:40.3,83,79.04905701,96,0
00:40.3,83,79.04905701,96,0
00:40.3,83,79.04905701,96,0
00:40.3,83,79.17601013,96,0
00:40.3,83,79.17601013,96,0
00:40.3,83,79.17601013,96,0
00:40.3,83,79.17601013,96,0
00:40.3,83,79.39818573,96,0
00:40.3,83,79.39818573,96,0
00:40.3,83,79.39818573,96,0
00:40.3,83,79.67162323,96,0
00:40.3,83,79.67162323,96,0
00:40.3,83,79.67162323,96,0
00:40.3,83,79.94262695,96,0
00:40.3,83,79.94262695,96,0
00:40.4,83,79.94262695,96,0
00:40.4,83,79.94262695,96,0
00:40.4,83,80.16235352,96,0
00:40.4,83,80.16235352,96,0
00:40.4,83,80.16235352,96,0
00:40.4,83,80.29419708,96,0
00:40.4,83,80.29419708,96,0
00:40.4,83,80.29419708,96,0
00:40.4,83,80.31861115,96,0
00:40.4,83,80.31861115,96,0
00:40.4,83,80.31861115,96,0
00:40.4,83,80.31861115,96,0
00:40.4,83,80.23803711,96,0
00:40.4,83,80.23803711,96,0
00:40.4,83,80.23803711,96,0
00:40.4,83,80.05981445,96,0
00:40.4,83,80.05981445,96,0
00:40.4,83,80.05981445,96,0
00:40.4,83,79.80834961,96,0
00:40.4,83,79.80834961,96,0
00:40.4,83,79.80834961,96,0
00:40.4,83,79.80834961,96,0
00:40.4,83,79.51293182,96,0
00:40.4,83,79.51293182,96,0
00:40.4,83,79.51293182,96,0
00:40.5,83,79.20042419,96,0
00:40.5,83,79.20042419,96,0
00:40.5,83,79.20042419,96,0
00:40.5,84,78.89768982,96,0
00:40.5,84,78.89768982,96,0
00:40.5,84,78.89768982,96,0
00:40.5,84,78.89768982,96,0
00:40.5,84,78.62180328,96,0
00:40.5,84,78.62180328,96,0
00:40.5,84,78.62180328,96,0
00:40.5,84,78.38498688,96,0
00:40.5,84,78.38498688,96,0
00:40.5,84,78.38498688,96,0
00:40.5,84,78.18722534,96,0
00:40.5,84,78.18722534,96,0
00:40.5,84,78.18722534,96,0
00:40.5,84,78.18722534,96,0
00:40.5,84,78.02609253,96,0
00:40.5,84,78.02609253,96,0
00:40.5,84,78.02609253,96,0
00:40.5,84,77.90158081,96,0
00:40.5,84,77.90158081,96,0
00:40.5,84,77.90158081,96,0
00:40.5,84,77.81124878,96,0
00:40.5,84,77.81124878,96,0
00:40.6,84,77.81124878,96,0
00:40.6,84,77.81124878,96,0
00:40.6,84,77.75021362,96,0
00:40.6,84,77.75021362,96,0
00:40.6,84,77.75021362,96,0
00:40.6,84,77.71602631,96,0
00:40.6,84,77.71602631,96,0
00:40.6,84,77.71602631,96,0
00:40.6,84,77.70137787,96,0
00:40.6,84,77.70137787,96,0
00:40.6,84,77.70137787,96,0
00:40.6,84,77.70137787,96,0
00:40.6,84,77.69893646,96,0
00:40.6,84,77.69893646,96,0
00:40.6,84,77.69893646,96,0
00:40.6,84,77.70381927,96,0
00:40.6,84,77.70381927,96,0
00:40.6,84,77.70381927,96,0
00:40.6,84,77.71602631,96,0
00:40.6,84,77.71602631,96,0
00:40.6,84,77.71602631,96,0
00:40.6,84,77.71602631,96,0
00:40.6,84,77.74532318,96,0
00:40.6,84,77.74532318,96,0
00:40.6,84,77.74532318,96,0
00:40.7,84,77.79904175,96,0
00:40.7,84,77.79904175,96,0
00:40.7,84,77.79904175,96,0
00:40.7,84,77.87228394,96,0
00:40.7,84,77.87228394,96,0
00:40.7,84,77.87228394,96,0
00:40.7,84,77.87228394,96,0
00:40.7,84,77.96749878,96,0
00:40.7,84,77.96749878,96,0
00:40.7,84,77.96749878,96,0
00:40.7,84,78.06027222,96,0
00:40.7,84,78.06027222,96,0
00:40.7,84,78.06027222,96,0
00:40.7,84,78.1335144,96,0
00:40.7,84,78.1335144,96,0
00:40.7,84,78.1335144,96,0
00:40.7,84,78.1335144,96,0
00:40.7,84,78.1725769,96,0
00:40.7,84,78.1725769,96,0
00:40.7,84,78.1725769,96,0
00:40.7,84,78.1725769,96,0
00:40.7,84,78.1725769,96,0
00:40.7,84,78.1725769,96,0
00:40.7,84,78.12863159,96,0
00:40.7,84,78.12863159,96,0
00:40.8,84,78.12863159,96,0
00:40.8,84,78.12863159,96,0
00:40.8,84,78.0553894,96,0
00:40.8,84,78.0553894,96,0
00:40.8,84,78.0553894,96,0
00:40.8,84,77.96017456,96,0
00:40.8,84,77.96017456,96,0
00:40.8,84,77.96017456,96,0
00:40.8,84,77.85275269,96,0
00:40.8,84,77.85275269,96,0
00:40.8,84,77.85275269,96,0
00:40.8,84,77.85275269,96,0
00:40.8,84,77.74532318,96,0
00:40.8,84,77.74532318,96,0
00:40.8,84,77.74532318,96,0
00:40.8,84,77.64034271,96,0
00:40.8,84,77.64034271,96,0
00:40.8,84,77.64034271,96,0
00:40.8,84,77.55489349,96,0
00:40.8,84,77.55489349,96,0
00:40.8,84,77.55489349,96,0
00:40.8,84,77.55489349,96,0
00:40.8,84,77.49629974,96,0
00:40.8,84,77.49629974,96,0
00:40.8,84,77.49629974,96,0
00:40.9,84,77.48897552,96,0
00:40.9,84,77.48897552,96,0
00:40.9,84,77.48897552,96,0
00:40.9,84,77.58663177,96,0
00:40.9,84,77.58663177,96,0
00:40.9,84,77.58663177,96,0
00:40.9,84,77.58663177,96,0
00:40.9,84,77.88204956,96,0
00:40.9,84,77.88204956,96,0
00:40.9,84,77.88204956,96,0
00:40.9,84,78.46555328,96,0
00:40.9,84,78.46555328,96,0
00:40.9,84,78.46555328,96,0
00:40.9,84,79.3859787,96,0
00:40.9,84,79.3859787,96,0
00:40.9,84,79.3859787,96,0
00:40.9,84,79.3859787,96,0
00:40.9,84,80.59937286,96,0
00:40.9,84,80.59937286,96,0
00:40.9,84,80.59937286,96,0
00:40.9,84,81.96170044,96,0
00:40.9,84,81.96170044,96,0
00:40.9,84,81.96170044,96,0
00:40.9,84,83.26055145,96,0
00:40.9,84,83.26055145,96,0
00:41.0,84,83.26055145,96,0
00:41.0,84,83.26055145,96,0
00:41.0,84,84.27619171,96,0
00:41.0,84,84.27619171,96,0
00:41.0,84,84.27619171,96,0
00:41.0,84,84.86213684,96,0
00:41.0,84,84.86213684,96,0
00:41.0,84,84.86213684,96,0
00:41.0,84,84.98664856,96,0
00:41.0,84,84.98664856,96,0
00:41.0,84,84.98664856,96,0
00:41.0,84,84.98664856,96,0
00:00:41,84,84.70832062,96,0
00:41.0,84,84.70832062,96,0
00:41.0,84,84.70832062,96,0
00:41.0,84,84.14190674,96,0
00:41.0,84,84.14190674,96,0
00:41.0,84,84.14190674,96,0
00:41.0,84,83.40215302,96,0
00:41.0,84,83.40215302,96,0
00:41.0,84,83.40215302,96,0
00:41.0,84,83.40215302,96,0
00:41.0,84,82.58914948,96,0
00:41.0,84,82.58914948,96,0
00:41.0,84,82.58914948,96,0
00:41.1,84,81.77127075,96,0
00:41.1,84,81.77127075,96,0
00:41.1,84,81.77127075,96,0
00:41.1,84,80.98756409,96,0
00:41.1,84,80.98756409,96,0
00:41.1,84,80.98756409,96,0
00:41.1,84,80.98756409,96,0
00:41.1,84,80.2624588,96,0
00:41.1,84,80.2624588,96,0
00:41.1,84,80.2624588,96,0
00:41.1,84,79.62767792,96,0
00:41.1,84,79.62767792,96,0
00:41.1,84,79.62767792,96,0
00:41.1,84,79.10276794,96,0
00:41.1,84,79.10276794,96,0
00:41.1,84,79.10276794,96,0
00:41.1,84,79.10276794,96,0
00:41.1,84,78.72190094,96,0
00:41.1,84,78.72190094,96,0
00:41.1,84,78.72190094,96,0
00:41.1,86,78.49729156,95,0
00:41.1,86,78.49729156,95,0
00:41.1,86,78.49729156,95,0
00:41.1,86,78.433815,95,0
00:41.1,86,78.433815,95,0
00:41.2,86,78.433815,95,0
00:41.2,86,78.433815,95,0
00:41.2,86,78.52170563,95,0
00:41.2,86,78.52170563,95,0
00:41.2,86,78.52170563,95,0
00:41.2,86,78.73166656,95,0
00:41.2,86,78.73166656,95,0
00:41.2,86,78.73166656,95,0
00:41.2,86,79.02220154,95,0
00:41.2,86,79.02220154,95,0
00:41.2,86,79.02220154,95,0
00:41.2,86,79.02220154,95,0
00:41.2,86,79.34447479,95,0
00:41.2,86,79.34447479,95,0
00:41.2,86,79.34447479,95,0
00:41.2,86,79.65453339,95,0
00:41.2,86,79.65453339,95,0
00:41.2,86,79.65453339,95,0
00:41.2,86,79.90356445,95,0
00:41.2,86,79.90356445,95,0
00:41.2,86,79.90356445,95,0
00:41.2,86,79.90356445,95,0
00:41.2,86,80.06225586,95,0
00:41.2,86,80.06225586,95,0
00:41.2,86,80.06225586,95,0
00:41.3,86,80.11108398,95,0
00:41.3,86,80.11108398,95,0
00:41.3,86,80.11108398,95,0
00:41.3,86,80.05249023,95,0
00:41.3,86,80.05249023,95,0
00:41.3,86,80.05249023,95,0
00:41.3,86,80.05249023,95,0
00:41.3,86,79.90112305,95,0
00:41.3,86,79.90112305,95,0
00:41.3,86,79.90112305,95,0
00:41.3,86,79.68871307,95,0
00:41.3,86,79.68871307,95,0
00:41.3,86,79.68871307,95,0
00:41.3,86,79.43968964,95,0
00:41.3,86,79.43968964,95,0
00:41.3,86,79.43968964,95,0
00:41.3,86,79.43968964,95,0
00:41.3,86,79.18333435,95,0
00:41.3,86,79.18333435,95,0
00:41.3,86,79.18333435,95,0
00:41.3,86,78.93919373,95,0
00:41.3,86,78.93919373,95,0
00:41.3,86,78.93919373,95,0
00:41.3,86,78.72434235,95,0
00:41.3,86,78.72434235,95,0
00:41.4,86,78.72434235,95,0
00:41.4,86,78.72434235,95,0
00:41.4,86,78.53879547,95,0
00:41.4,86,78.53879547,95,0
00:41.4,86,78.53879547,95,0
00:41.4,86,78.38498688,95,0
00:41.4,86,78.38498688,95,0
00:41.4,86,78.38498688,95,0
00:41.4,86,78.25315094,95,0
00:41.4,86,78.25315094,95,0
00:41.4,86,78.25315094,95,0
00:41.4,86,78.25315094,95,0
00:41.4,86,78.14816284,95,0
00:41.4,86,78.14816284,95,0
00:41.4,86,78.14816284,95,0
00:41.4,86,78.06759644,95,0
00:41.4,86,78.06759644,95,0
00:41.4,86,78.06759644,95,0
00:41.4,86,78.00900269,95,0
00:41.4,86,78.00900269,95,0
00:41.4,86,78.00900269,95,0
00:41.4,86,78.00900269,95,0
00:41.4,86,77.97970581,95,0
00:41.4,86,77.97970581,95,0
00:41.4,86,77.97970581,95,0
00:41.5,86,77.97238159,95,0
00:41.5,86,77.97238159,95,0
00:41.5,86,77.97238159,95,0
00:41.5,86,77.9772644,95,0
00:41.5,86,77.9772644,95,0
00:41.5,86,77.9772644,95,0
00:41.5,86,77.9772644,95,0
00:41.5,86,77.98703003,95,0
00:41.5,86,77.98703003,95,0
00:41.5,86,77.98703003,95,0
00:41.5,86,78.00411987,95,0
00:41.5,86,78.00411987,95,0
00:41.5,86,78.00411987,95,0
00:41.5,86,78.01876831,95,0
00:41.5,86,78.01876831,95,0
00:41.5,86,78.01876831,95,0
00:41.5,86,78.01876831,95,0
00:41.5,86,78.03097534,95,0
00:41.5,86,78.03097534,95,0
00:41.5,86,78.03097534,95,0
00:41.5,86,78.052948,95,0
00:41.5,86,78.052948,95,0
00:41.5,86,78.052948,95,0
00:41.5,86,78.08468628,95,0
00:41.5,86,78.08468628,95,0
00:41.6,86,78.08468628,95,0
00:41.6,86,78.08468628,95,0
00:41.6,86,78.12374878,95,0
00:41.6,86,78.12374878,95,0
00:41.6,86,78.12374878,95,0
00:41.6,86,78.1701355,95,0
00:41.6,86,78.1701355,95,0
00:41.6,86,78.1701355,95,0
00:41.6,86,78.21652222,95,0
00:41.6,86,78.21652222,95,0
00:41.6,86,78.21652222,95,0
00:41.6,86,78.21652222,95,0
00:41.6,86,78.25070953,95,0
00:41.6,86,78.25070953,95,0
00:41.6,86,78.25070953,95,0
00:41.6,86,78.26291656,95,0
00:41.6,86,78.26291656,95,0
00:41.6,86,78.26291656,95,0
00:41.6,86,78.25803375,95,0
00:41.6,86,78.25803375,95,0
00:41.6,86,78.25803375,95,0
00:41.6,86,78.25803375,95,0
00:41.6,86,78.22384644,95,0
00:41.6,86,78.22384644,95,0
00:41.6,86,78.22384644,95,0
00:41.7,86,78.1701355,95,0
00:41.7,86,78.1701355,95,0
00:41.7,86,78.1701355,95,0
00:41.7,86,78.09933472,95,0
00:41.7,86,78.09933472,95,0
00:41.7,86,78.09933472,95,0
00:41.7,86,78.09933472,95,0
00:41.7,86,78.01876831,95,0
00:41.7,86,78.01876831,95,0
00:41.7,86,78.01876831,95,0
00:41.7,86,77.93087769,95,0
00:41.7,86,77.93087769,95,0
00:41.7,86,77.93087769,95,0
00:41.7,86,77.84542847,95,0
00:41.7,86,77.84542847,95,0
00:41.7,86,77.84542847,95,0
00:41.7,86,77.84542847,95,0
00:41.7,86,77.7795105,95,0
00:41.7,86,77.7795105,95,0
00:41.7,86,77.7795105,95,0
00:41.7,86,77.74532318,95,0
00:41.7,86,77.74532318,95,0
00:41.7,86,77.74532318,95,0
00:41.7,86,77.78927612,95,0
00:41.7,86,77.78927612,95,0
00:41.8,86,77.78927612,95,0
00:41.8,86,77.78927612,95,0
00:41.8,86,77.98214722,95,0
00:41.8,86,77.98214722,95,0
00:41.8,86,77.98214722,95,0
00:41.8,86,78.40207672,95,0
00:41.8,86,78.40207672,95,0
00:41.8,86,78.40207672,95,0
00:41.8,86,79.10032654,95,0
00:41.8,86,79.10032654,95,0
00:41.8,86,79.10032654,95,0
00:41.8,86,79.10032654,95,0
00:41.8,86,80.06225586,95,0
00:41.8,86,80.06225586,95,0
00:41.8,86,80.06225586,95,0
00:41.8,86,81.19264221,95,0
00:41.8,86,81.19264221,95,0
00:41.8,86,81.19264221,95,0
00:41.8,86,82.32303619,95,0
00:41.8,86,82.32303619,95,0
00:41.8,86,82.32303619,95,0
00:41.8,86,82.32303619,95,0
00:41.8,86,83.27031708,95,0
00:41.8,86,83.27031708,95,0
00:41.8,86,83.27031708,95,0
00:41.9,86,83.8928833,95,0
00:41.9,86,83.8928833,95,0
00:41.9,86,83.8928833,95,0
00:41.9,86,84.13458252,95,0
00:41.9,86,84.13458252,95,0
00:41.9,86,84.13458252,95,0
00:41.9,86,84.13458252,95,0
00:41.9,86,84.0100708,95,0
00:41.9,86,84.0100708,95,0
00:41.9,86,84.0100708,95,0
00:41.9,86,83.59502411,95,0
00:41.9,86,83.59502411,95,0
00:41.9,86,83.59502411,95,0
00:41.9,86,82.98466492,95,0
00:41.9,86,82.98466492,95,0
00:41.9,86,82.98466492,95,0
00:41.9,86,82.98466492,95,0
00:41.9,86,82.26200104,95,0
00:41.9,86,82.26200104,95,0
00:41.9,86,82.26200104,95,0
00:41.9,86,81.48561859,95,0
00:41.9,86,81.48561859,95,0
00:41.9,86,81.48561859,95,0
00:41.9,86,80.70679474,95,0
00:41.9,86,80.70679474,95,0
00:42.0,86,80.70679474,95,0
00:42.0,86,80.70679474,95,0
00:42.0,86,79.96948242,95,0
00:42.0,86,79.96948242,95,0
00:42.0,86,79.96948242,95,0
00:42.0,86,79.3078537,95,0
00:42.0,86,79.3078537,95,0
00:42.0,86,79.3078537,95,0
00:42.0,86,78.75608826,95,0
00:42.0,86,78.75608826,95,0
00:42.0,86,78.75608826,95,0
00:42.0,86,78.75608826,95,0
00:00:42,86,78.34592438,95,0
00:42.0,86,78.34592438,95,0
00:42.0,86,78.34592438,95,0
00:42.0,86,78.10177612,95,0
00:42.0,86,78.10177612,95,0
00:42.0,86,78.10177612,95,0
00:42.0,86,78.04074097,95,0
00:42.0,86,78.04074097,95,0
00:42.0,86,78.04074097,95,0
00:42.0,86,78.04074097,95,0
00:42.0,86,78.15060425,95,0
00:42.0,86,78.15060425,95,0
00:42.0,86,78.15060425,95,0
00:42.1,86,78.40451813,95,0
00:42.1,86,78.40451813,95,0
00:42.1,86,78.40451813,95,0
00:42.1,86,78.76097107,95,0
00:42.1,86,78.76097107,95,0
00:42.1,86,78.76097107,95,0
00:42.1,86,78.76097107,95,0
00:42.1,86,79.15892029,95,0
00:42.1,86,79.15892029,95,0
00:42.1,86,79.15892029,95,0
00:42.1,86,79.53246307,95,0
00:42.1,86,79.53246307,95,0
00:42.1,86,79.53246307,95,0
00:42.1,86,79.83764648,95,0
00:42.1,86,79.83764648,95,0
00:42.1,86,79.83764648,95,0
00:42.1,86,79.83764648,95,0
00:42.1,86,80.0378418,95,0
00:42.1,86,80.0378418,95,0
00:42.1,86,80.0378418,95,0
00:42.1,85,80.11352539,95,0
00:42.1,85,80.11352539,95,0
00:42.1,85,80.11352539,95,0
00:42.1,85,80.07446289,95,0
00:42.1,85,80.07446289,95,0
00:42.2,85,80.07446289,95,0
00:42.2,85,80.07446289,95,0
00:42.2,85,79.94262695,95,0
00:42.2,85,79.94262695,95,0
00:42.2,85,79.94262695,95,0
00:42.2,85,79.7399826,95,0
00:42.2,85,79.7399826,95,0
00:42.2,85,79.7399826,95,0
00:42.2,85,79.5031662,95,0
00:42.2,85,79.5031662,95,0
00:42.2,85,79.5031662,95,0
00:42.2,85,79.5031662,95,0
00:42.2,85,79.25414276,95,0
00:42.2,85,79.25414276,95,0
00:42.2,85,79.25414276,95,0
00:42.2,85,79.01731873,95,0
00:42.2,85,79.01731873,95,0
00:42.2,85,79.01731873,95,0
00:42.2,85,78.79515076,95,0
00:42.2,85,78.79515076,95,0
00:42.2,85,78.79515076,95,0
00:42.2,85,78.79515076,95,0
00:42.2,85,78.59983063,95,0
00:42.2,85,78.59983063,95,0
00:42.2,85,78.59983063,95,0
00:42.3,85,78.4313736,95,0
00:42.3,85,78.4313736,95,0
00:42.3,85,78.4313736,95,0
00:42.3,85,78.28977203,95,0
00:42.3,85,78.28977203,95,0
00:42.3,85,78.28977203,95,0
00:42.3,85,78.28977203,95,0
00:42.3,85,78.1725769,95,0
00:42.3,85,78.1725769,95,0
00:42.3,85,78.1725769,95,0
00:42.3,85,78.07736206,95,0
00:42.3,85,78.07736206,95,0
00:42.3,85,78.07736206,95,0
00:42.3,85,78.0163269,95,0
00:42.3,85,78.0163269,95,0
00:42.3,85,78.0163269,95,0
00:42.3,85,78.0163269,95,0
00:42.3,85,77.98458862,95,0
00:42.3,85,77.98458862,95,0
00:42.3,85,77.98458862,95,0
00:42.3,85,77.98703003,95,0
00:42.3,85,77.98703003,95,0
00:42.3,85,77.98703003,95,0
00:42.3,85,78.02120972,95,0
00:42.3,85,78.02120972,95,0
00:42.4,85,78.02120972,95,0
00:42.4,85,78.02120972,95,0
00:42.4,85,78.08224487,95,0
00:42.4,85,78.08224487,95,0
00:42.4,85,78.08224487,95,0
00:42.4,85,78.15548706,95,0
00:42.4,85,78.15548706,95,0
00:42.4,85,78.15548706,95,0
00:42.4,85,78.23849487,95,0
00:42.4,85,78.23849487,95,0
00:42.4,85,78.23849487,95,0
00:42.4,85,78.23849487,95,0
00:42.4,85,78.3166275,95,0
00:42.4,85,78.3166275,95,0
00:42.4,85,78.3166275,95,0
00:42.4,85,78.37766266,95,0
00:42.4,85,78.37766266,95,0
00:42.4,85,78.37766266,95,0
00:42.4,85,78.42404938,95,0
00:42.4,85,78.42404938,95,0
00:42.4,85,78.42404938,95,0
00:42.4,85,78.42404938,95,0
00:42.4,85,78.45822906,95,0
00:42.4,85,78.45822906,95,0
00:42.4,85,78.45822906,95,0
00:42.5,85,78.48264313,95,0
00:42.5,85,78.48264313,95,0
00:42.5,85,78.48264313,95,0
00:42.5,85,78.50461578,95,0
00:42.5,85,78.50461578,95,0
00:42.5,85,78.50461578,95,0
00:42.5,85,78.50461578,95,0
00:42.5,85,78.53391266,95,0
00:42.5,85,78.53391266,95,0
00:42.5,85,78.53391266,95,0
00:42.5,85,78.57297516,95,0
00:42.5,85,78.57297516,95,0
00:42.5,85,78.57297516,95,0
00:42.5,85,78.61692047,95,0
00:42.5,85,78.61692047,95,0
00:42.5,85,78.61692047,95,0
00:42.5,85,78.61692047,95,0
00:42.5,85,78.67063141,95,0
00:42.5,85,78.67063141,95,0
00:42.5,85,78.67063141,95,0
00:42.5,85,78.746315,95,0
00:42.5,85,78.746315,95,0
00:42.5,85,78.746315,95,0
00:42.5,85,78.88059998,95,0
00:42.5,85,78.88059998,95,0
00:42.6,85,78.88059998,95,0
00:42.6,85,78.88059998,95,0
00:42.6,85,79.1247406,95,0
00:42.6,85,79.1247406,95,0
00:42.6,85,79.1247406,95,0
00:42.6,85,79.5422287,95,0
00:42.6,85,79.5422287,95,0
00:42.6,85,79.5422287,95,0
00:42.6,85,80.15991211,95,0
00:42.6,85,80.15991211,95,0
00:42.6,85,80.15991211,95,0
00:42.6,85,80.15991211,95,0
00:42.6,85,80.97535706,95,0
00:42.6,85,80.97535706,95,0
00:42.6,85,80.97535706,95,0
00:42.6,85,81.91531372,95,0
00:42.6,85,81.91531372,95,0
00:42.6,85,81.91531372,95,0
00:42.6,85,82.85527039,95,0
00:42.6,85,82.85527039,95,0
00:42.6,85,82.85527039,95,0
00:42.6,85,82.85527039,95,0
00:42.6,85,83.65850067,95,0
00:42.6,85,83.65850067,95,0
00:42.6,85,83.65850067,95,0
00:42.7,85,84.21759033,95,0
00:42.7,85,84.21759033,95,0
00:42.7,85,84.21759033,95,0
00:42.7,85,84.47638702,95,0
00:42.7,85,84.47638702,95,0
00:42.7,85,84.47638702,95,0
00:42.7,85,84.47638702,95,0
00:42.7,85,84.43488312,95,0
00:42.7,85,84.43488312,95,0
00:42.7,85,84.43488312,95,0
00:42.7,85,84.13702393,95,0
00:42.7,85,84.13702393,95,0
00:42.7,85,84.13702393,95,0
00:42.7,85,83.65117645,95,0
00:42.7,85,83.65117645,95,0
00:42.7,85,83.65117645,95,0
00:42.7,85,83.65117645,95,0
00:42.7,85,83.04081726,95,0
00:42.7,85,83.04081726,95,0
00:42.7,85,83.04081726,95,0
00:42.7,85,82.35233307,95,0
00:42.7,85,82.35233307,95,0
00:42.7,85,82.35233307,95,0
00:42.7,85,81.63210297,95,0
00:42.7,85,81.63210297,95,0
00:42.8,85,81.63210297,95,0
00:42.8,85,81.63210297,95,0
00:42.8,85,80.91920471,95,0
00:42.8,85,80.91920471,95,0
00:42.8,85,80.91920471,95,0
00:42.8,85,80.2624588,95,0
00:42.8,85,80.2624588,95,0
00:42.8,85,80.2624588,95,0
00:42.8,85,79.69115448,95,0
00:42.8,85,79.69115448,95,0
00:42.8,85,79.69115448,95,0
00:42.8,85,79.69115448,95,0
00:42.8,82,79.25902557,95,0
00:42.8,82,79.25902557,95,0
00:42.8,82,79.25902557,95,0
00:42.8,82,78.99534607,95,0
00:42.8,82,78.99534607,95,0
00:42.8,82,78.99534607,95,0
00:42.8,82,78.90989685,95,0
00:42.8,82,78.90989685,95,0
00:42.8,82,78.90989685,95,0
00:42.8,82,78.90989685,95,0
00:42.8,82,79.00022888,95,0
00:42.8,82,79.00022888,95,0
00:42.8,82,79.00022888,95,0
00:42.9,82,79.2419281,95,0
00:42.9,82,79.2419281,95,0
00:42.9,82,79.2419281,95,0
00:42.9,82,79.58861542,95,0
00:42.9,82,79.58861542,95,0
00:42.9,82,79.58861542,95,0
00:42.9,82,79.58861542,95,0
00:42.9,82,79.97680664,95,0
00:42.9,82,79.97680664,95,0
00:42.9,82,79.97680664,95,0
00:42.9,82,80.34790802,95,0
00:42.9,82,80.34790802,95,0
00:42.9,82,80.34790802,95,0
00:42.9,82,80.64820099,95,0
00:42.9,82,80.64820099,95,0
00:42.9,82,80.64820099,95,0
00:42.9,82,80.64820099,95,0
00:42.9,82,80.84352112,95,0
00:42.9,82,80.84352112,95,0
00:42.9,82,80.84352112,95,0
00:42.9,82,80.91188049,95,0
00:42.9,82,80.91188049,95,0
00:42.9,82,80.91188049,95,0
00:42.9,82,80.86549377,95,0
00:42.9,82,80.86549377,95,0
00:43.0,82,80.86549377,95,0
00:43.0,82,80.86549377,95,0
00:43.0,82,80.72632599,95,0
00:43.0,82,80.72632599,95,0
00:43.0,82,80.72632599,95,0
00:43.0,82,80.52368927,95,0
00:43.0,82,80.52368927,95,0
00:43.0,82,80.52368927,95,0
00:43.0,82,80.27222443,95,0
00:43.0,82,80.27222443,95,0
00:43.0,82,80.27222443,95,0
00:43.0,82,80.27222443,95,0
00:00:43,82,79.99633789,95,0
00:43.0,82,79.99633789,95,0
00:43.0,82,79.99633789,95,0
00:43.0,82,79.70824432,95,0
00:43.0,82,79.70824432,95,0
00:43.0,82,79.70824432,95,0
00:43.0,82,79.4274826,95,0
00:43.0,82,79.4274826,95,0
00:43.0,82,79.4274826,95,0
00:43.0,82,79.4274826,95,0
00:43.0,82,79.17112732,95,0
00:43.0,82,79.17112732,95,0
00:43.0,82,79.17112732,95,0
00:43.1,82,78.95140076,95,0
00:43.1,82,78.95140076,95,0
00:43.1,82,78.95140076,95,0
00:43.1,82,78.78538513,95,0
00:43.1,82,78.78538513,95,0
00:43.1,82,78.78538513,95,0
00:43.1,82,78.78538513,95,0
00:43.1,82,78.67795563,95,0
00:43.1,82,78.67795563,95,0
00:43.1,82,78.67795563,95,0
00:43.1,82,78.6266861,95,0
00:43.1,82,78.6266861,95,0
00:43.1,82,78.6266861,95,0
00:43.1,82,78.61692047,95,0
00:43.1,82,78.61692047,95,0
00:43.1,82,78.61692047,95,0
00:43.1,82,78.61692047,95,0
00:43.1,82,78.6291275,95,0
00:43.1,82,78.6291275,95,0
00:43.1,82,78.6291275,95,0
00:43.1,82,78.64377594,95,0
00:43.1,82,78.64377594,95,0
00:43.1,82,78.64377594,95,0
00:43.1,82,78.64621735,95,0
00:43.1,82,78.64621735,95,0
00:43.2,82,78.64621735,95,0
00:43.2,82,78.64621735,95,0
00:43.2,82,78.63889313,95,0
00:43.2,82,78.63889313,95,0
00:43.2,82,78.63889313,95,0
00:43.2,82,78.62424469,95,0
00:43.2,82,78.62424469,95,0
00:43.2,82,78.62424469,95,0
00:43.2,82,78.61447906,95,0
00:43.2,82,78.61447906,95,0
00:43.2,82,78.61447906,95,0
00:43.2,82,78.61447906,95,0
00:43.2,82,78.61447906,95,0
00:43.2,82,78.61447906,95,0
00:43.2,82,78.61447906,95,0
00:43.2,82,78.6266861,95,0
00:43.2,82,78.6266861,95,0
00:43.2,82,78.6266861,95,0
00:43.2,82,78.65598297,95,0
00:43.2,82,78.65598297,95,0
00:43.2,82,78.65598297,95,0
00:43.2,82,78.65598297,95,0
00:43.2,82,78.70969391,95,0
00:43.2,82,78.70969391,95,0
00:43.2,82,78.70969391,95,0
00:43.3,82,78.8122406,95,0
00:43.3,82,78.8122406,95,0
00:43.3,82,78.8122406,95,0
00:43.3,82,79.00267029,95,0
00:43.3,82,79.00267029,95,0
00:43.3,82,79.00267029,95,0
00:43.3,82,79.00267029,95,0
00:43.3,82,79.35179901,95,0
00:43.3,82,79.35179901,95,0
00:43.3,82,79.35179901,95,0
00:43.3,82,79.93041992,95,0
00:43.3,82,79.93041992,95,0
00:43.3,82,79.93041992,95,0
00:43.3,82,80.77516174,95,0
00:43.3,82,80.77516174,95,0
00:43.3,82,80.77516174,95,0
00:43.3,82,80.77516174,95,0
00:43.3,82,81.85671997,95,0
00:43.3,82,81.85671997,95,0
00:43.3,82,81.85671997,95,0
00:43.3,82,83.07499695,95,0
00:43.3,82,83.07499695,95,0
00:43.3,82,83.07499695,95,0
00:43.3,82,84.2713089,95,0
00:43.3,82,84.2713089,95,0
00:43.4,82,84.2713089,95,0
00:43.4,82,84.2713089,95,0
00:43.4,82,85.2625351,95,0
00:43.4,82,85.2625351,95,0
00:43.4,82,85.2625351,95,0
00:43.4,82,85.91195679,95,0
00:43.4,82,85.91195679,95,0
00:43.4,82,85.91195679,95,0
00:43.4,82,86.16098022,95,0
00:43.4,82,86.16098022,95,0
00:43.4,82,86.16098022,95,0
00:43.4,82,86.16098022,95,0
00:43.4,82,86.0340271,95,0
00:43.4,82,86.0340271,95,0
00:43.4,82,86.0340271,95,0
00:43.4,82,85.61165619,95,0
00:43.4,82,85.61165619,95,0
00:43.4,82,85.61165619,95,0
00:43.4,82,84.98908997,95,0
00:43.4,82,84.98908997,95,0
00:43.4,82,84.98908997,95,0
00:43.4,82,84.98908997,95,0
00:43.4,82,84.26398468,95,0
00:43.4,82,84.26398468,95,0
00:43.4,82,84.26398468,95,0
00:43.5,82,83.50713348,95,0
00:43.5,82,83.50713348,95,0
00:43.5,82,83.50713348,95,0
00:43.5,82,82.76005554,95,0
00:43.5,82,82.76005554,95,0
00:43.5,82,82.76005554,95,0
00:43.5,82,82.76005554,95,0
00:43.5,82,82.04959106,95,0
00:43.5,82,82.04959106,95,0
00:43.5,82,82.04959106,95,0
00:43.5,82,81.39772797,95,0
00:43.5,82,81.39772797,95,0
00:43.5,82,81.39772797,95,0
00:43.5,82,80.81910706,95,0
00:43.5,82,80.81910706,95,0
00:43.5,82,80.81910706,95,0
00:43.5,82,80.81910706,95,0
00:43.5,82,80.33570099,95,0
00:43.5,82,80.33570099,95,0
00:43.5,82,80.33570099,95,0
00:43.5,82,79.96459961,95,0
00:43.5,82,79.96459961,95,0
00:43.5,82,79.96459961,95,0
00:43.5,82,79.72777557,95,0
00:43.5,82,79.72777557,95,0
00:43.6,82,79.72777557,95,0
00:43.6,82,79.72777557,95,0
00:43.6,82,79.63011932,95,0
00:43.6,82,79.63011932,95,0
00:43.6,82,79.63011932,95,0
00:43.6,82,79.67650604,95,0
00:43.6,82,79.67650604,95,0
00:43.6,82,79.67650604,95,0
00:43.6,82,79.84985352,95,0
00:43.6,82,79.84985352,95,0
00:43.6,82,79.84985352,95,0
00:43.6,82,79.84985352,95,0
00:43.6,82,80.12329102,95,0
00:43.6,82,80.12329102,95,0
00:43.6,82,80.12329102,95,0
00:43.6,82,80.45288849,95,0
00:43.6,82,80.45288849,95,0
00:43.6,82,80.45288849,95,0
00:43.6,82,80.78492737,95,0
00:43.6,82,80.78492737,95,0
00:43.6,82,80.78492737,95,0
00:43.6,82,80.78492737,95,0
00:43.6,82,81.0705719,95,0
00:43.6,82,81.0705719,95,0
00:43.6,82,81.0705719,95,0
00:43.7,82,81.26345062,95,0
00:43.7,82,81.26345062,95,0
00:43.7,82,81.26345062,95,0
00:43.7,82,81.34157562,95,0
00:43.7,82,81.34157562,95,0
00:43.7,82,81.34157562,95,0
00:43.7,82,81.34157562,95,0
00:43.7,82,81.30251312,95,0
00:43.7,82,81.30251312,95,0
00:43.7,82,81.30251312,95,0
00:43.7,82,81.16334534,95,0
00:43.7,82,81.16334534,95,0
00:43.7,82,81.16334534,95,0
00:43.7,82,80.9533844,95,0
00:43.7,82,80.9533844,95,0
00:43.7,82,80.9533844,95,0
00:43.7,82,80.9533844,95,0
00:43.7,82,80.70435333,95,0
00:43.7,82,80.70435333,95,0
00:43.7,82,80.70435333,95,0
00:43.7,82,80.43824005,95,0
00:43.7,82,80.43824005,95,0
00:43.7,82,80.43824005,95,0
00:43.7,82,80.17211914,95,0
00:43.7,82,80.17211914,95,0
00:43.8,82,80.17211914,95,0
00:43.8,82,80.17211914,95,0
00:43.8,82,79.91821289,95,0
00:43.8,82,79.91821289,95,0
00:43.8,82,79.91821289,95,0
00:43.8,82,79.68383026,95,0
00:43.8,82,79.68383026,95,0
00:43.8,82,79.68383026,95,0
00:43.8,82,79.47142792,95,0
00:43.8,82,79.47142792,95,0
00:43.8,82,79.47142792,95,0
00:43.8,82,79.47142792,95,0
00:43.8,82,79.28588104,95,0
00:43.8,82,79.28588104,95,0
00:43.8,82,79.28588104,95,0
00:43.8,82,79.12718201,95,0
00:43.8,82,79.12718201,95,0
00:43.8,82,79.12718201,95,0
00:43.8,82,78.99290466,95,0
00:43.8,82,78.99290466,95,0
00:43.8,82,78.99290466,95,0
00:43.8,82,78.99290466,95,0
00:43.8,82,78.87571716,95,0
00:43.8,82,78.87571716,95,0
00:43.8,82,78.87571716,95,0
00:43.9,82,78.7731781,95,0
00:43.9,82,78.7731781,95,0
00:43.9,82,78.7731781,95,0
00:43.9,82,78.68039703,95,0
00:43.9,82,78.68039703,95,0
00:43.9,82,78.68039703,95,0
00:43.9,82,78.68039703,95,0
00:43.9,82,78.59983063,95,0
00:43.9,82,78.59983063,95,0
00:43.9,82,78.59983063,95,0
00:43.9,82,78.53147125,95,0
00:43.9,82,78.53147125,95,0
00:43.9,82,78.53147125,95,0
00:43.9,82,78.47776031,95,0
00:43.9,82,78.47776031,95,0
00:43.9,82,78.47776031,95,0
00:43.9,82,78.44602203,95,0
00:43.9,82,78.44602203,95,0
00:43.9,82,78.44602203,95,0
00:43.9,82,78.44602203,95,0
00:43.9,82,78.45578766,95,0
00:43.9,82,78.45578766,95,0
00:43.9,82,78.45578766,95,0
00:43.9,82,78.53391266,95,0
00:43.9,82,78.53391266,95,0
00:44.0,82,78.53391266,95,0
00:44.0,82,78.74143219,95,0
00:44.0,82,78.74143219,95,0
00:44.0,82,78.74143219,95,0
00:44.0,82,78.74143219,95,0
00:44.0,82,79.15159607,95,0
00:44.0,82,79.15159607,95,0
00:44.0,82,79.15159607,95,0
00:44.0,82,79.82543945,95,0
00:44.0,82,79.82543945,95,0
00:44.0,82,79.82543945,95,0
00:44.0,82,80.76783752,95,0
00:00:44,82,80.76783752,95,0
00:44.0,82,80.76783752,95,0
00:44.0,82,80.76783752,95,0
00:44.0,82,81.91531372,95,0
00:44.0,82,81.91531372,95,0
00:44.0,82,81.91531372,95,0
00:44.0,82,83.12870789,95,0
00:44.0,82,83.12870789,95,0
00:44.0,82,83.12870789,95,0
00:44.0,82,84.22979736,95,0
